# EIG2DOS: Utility for SIESTA to obtain the electronic density of states
#  E. Artacho, Apr 1999, A. Garcia, Apr 2012
# ------------------------------------------
# Eigenvalues read from mos2-2graphene.EIG
# Using smearing parameter:   0.100
# Using    700 points in energy range
# Selected bands: 1 to: 1956
# Emin, emax in file for selected band(s):    -23.0322200    153.4318900
# Nbands, Nspin, Nk   =   1956     1    13
# E_F                 =    -4.8116 eV --> (shifted to ZERO)
# Broadening          =     0.1000 eV
#
#        E            N(up)  (=)   N(down)         Ntot
    -10.000000      6.887055      6.887055     13.774109
     -9.971388      6.064758      6.064758     12.129515
     -9.942775      5.350112      5.350112     10.700223
     -9.914163      4.919060      4.919060      9.838120
     -9.885551      4.947574      4.947574      9.895148
     -9.856938      5.481669      5.481669     10.963338
     -9.828326      6.370509      6.370509     12.741019
     -9.799714      7.337625      7.337625     14.675251
     -9.771102      8.132313      8.132313     16.264625
     -9.742489      8.623527      8.623527     17.247053
     -9.713877      8.775248      8.775248     17.550496
     -9.685265      8.577242      8.577242     17.154484
     -9.656652      8.023026      8.023026     16.046052
     -9.628040      7.135186      7.135186     14.270373
     -9.599428      5.990485      5.990485     11.980971
     -9.570815      4.733515      4.733515      9.467030
     -9.542203      3.588006      3.588006      7.176012
     -9.513591      2.843750      2.843750      5.687500
     -9.484979      2.785660      2.785660      5.571321
     -9.456366      3.573437      3.573437      7.146874
     -9.427754      5.132510      5.132510     10.265020
     -9.399142      7.137482      7.137482     14.274964
     -9.370529      9.133219      9.133219     18.266439
     -9.341917     10.738570     10.738570     21.477140
     -9.313305     11.787023     11.787023     23.574047
     -9.284692     12.298076     12.298076     24.596153
     -9.256080     12.334549     12.334549     24.669097
     -9.227468     11.909373     11.909373     23.818746
     -9.198856     11.033086     11.033086     22.066171
     -9.170243      9.825534      9.825534     19.651068
     -9.141631      8.540698      8.540698     17.081397
     -9.113019      7.452082      7.452082     14.904165
     -9.084406      6.711519      6.711519     13.423039
     -9.055794      6.334193      6.334193     12.668385
     -9.027182      6.310925      6.310925     12.621849
     -8.998569      6.683523      6.683523     13.367046
     -8.969957      7.466316      7.466316     14.932632
     -8.941345      8.513654      8.513654     17.027307
     -8.912732      9.537869      9.537869     19.075738
     -8.884120     10.321998     10.321998     20.643997
     -8.855508     10.919869     10.919869     21.839738
     -8.826896     11.595764     11.595764     23.191529
     -8.798283     12.515923     12.515923     25.031846
     -8.769671     13.500678     13.500678     27.001355
     -8.741059     14.121798     14.121798     28.243595
     -8.712446     14.073082     14.073082     28.146164
     -8.683834     13.442467     13.442467     26.884935
     -8.655222     12.608240     12.608240     25.216480
     -8.626609     11.874643     11.874643     23.749287
     -8.597997     11.238891     11.238891     22.477782
     -8.569385     10.533616     10.533616     21.067233
     -8.540773      9.754692      9.754692     19.509384
     -8.512160      9.162335      9.162335     18.324669
     -8.483548      9.024613      9.024613     18.049225
     -8.454936      9.321235      9.321235     18.642471
     -8.426323      9.768964      9.768964     19.537928
     -8.397711     10.116406     10.116406     20.232811
     -8.369099     10.330303     10.330303     20.660607
     -8.340486     10.474492     10.474492     20.948985
     -8.311874     10.506282     10.506282     21.012563
     -8.283262     10.303940     10.303940     20.607880
     -8.254649      9.888880      9.888880     19.777761
     -8.226037      9.520747      9.520747     19.041493
     -8.197425      9.507989      9.507989     19.015978
     -8.168813      9.940162      9.940162     19.880323
     -8.140200     10.639309     10.639309     21.278617
     -8.111588     11.377426     11.377426     22.754853
     -8.082976     12.123097     12.123097     24.246195
     -8.054363     13.042108     13.042108     26.084215
     -8.025751     14.222837     14.222837     28.445674
     -7.997139     15.411969     15.411969     30.823937
     -7.968526     16.090187     16.090187     32.180374
     -7.939914     15.876774     15.876774     31.753548
     -7.911302     14.866534     14.866534     29.733068
     -7.882690     13.536816     13.536816     27.073631
     -7.854077     12.318435     12.318435     24.636870
     -7.825465     11.280315     11.280315     22.560630
     -7.796853     10.216207     10.216207     20.432413
     -7.768240      8.965165      8.965165     17.930331
     -7.739628      7.607639      7.607639     15.215278
     -7.711016      6.412107      6.412107     12.824214
     -7.682403      5.676569      5.676569     11.353138
     -7.653791      5.605891      5.605891     11.211782
     -7.625179      6.239326      6.239326     12.478652
     -7.596567      7.431130      7.431130     14.862259
     -7.567954      8.928317      8.928317     17.856633
     -7.539342     10.520396     10.520396     21.040791
     -7.510730     12.128299     12.128299     24.256598
     -7.482117     13.742568     13.742568     27.485137
     -7.453505     15.291579     15.291579     30.583158
     -7.424893     16.595391     16.595391     33.190782
     -7.396280     17.442552     17.442552     34.885104
     -7.367668     17.686028     17.686028     35.372056
     -7.339056     17.270227     17.270227     34.540454
     -7.310443     16.213188     16.213188     32.426375
     -7.281831     14.605745     14.605745     29.211490
     -7.253219     12.629426     12.629426     25.258852
     -7.224607     10.548034     10.548034     21.096067
     -7.195994      8.655942      8.655942     17.311885
     -7.167382      7.218396      7.218396     14.436792
     -7.138770      6.438509      6.438509     12.877018
     -7.110157      6.436829      6.436829     12.873658
     -7.081545      7.221614      7.221614     14.443227
     -7.052933      8.684490      8.684490     17.368980
     -7.024320     10.659623     10.659623     21.319246
     -6.995708     12.984228     12.984228     25.968456
     -6.967096     15.463619     15.463619     30.927238
     -6.938484     17.792371     17.792371     35.584743
     -6.909871     19.606980     19.606980     39.213961
     -6.881259     20.703929     20.703929     41.407858
     -6.852647     21.210644     21.210644     42.421288
     -6.824034     21.505410     21.505410     43.010821
     -6.795422     21.951019     21.951019     43.902038
     -6.766810     22.684115     22.684115     45.368229
     -6.738197     23.602504     23.602504     47.205008
     -6.709585     24.496693     24.496693     48.993386
     -6.680973     25.198778     25.198778     50.397556
     -6.652361     25.672323     25.672323     51.344646
     -6.623748     26.023243     26.023243     52.046486
     -6.595136     26.427362     26.427362     52.854724
     -6.566524     27.007521     27.007521     54.015042
     -6.537911     27.773962     27.773962     55.547923
     -6.509299     28.721443     28.721443     57.442887
     -6.480687     29.968342     29.968342     59.936684
     -6.452074     31.697975     31.697975     63.395950
     -6.423462     33.913467     33.913467     67.826934
     -6.394850     36.346080     36.346080     72.692159
     -6.366237     38.701290     38.701290     77.402580
     -6.337625     40.939102     40.939102     81.878204
     -6.309013     43.222544     43.222544     86.445088
     -6.280401     45.664547     45.664547     91.329095
     -6.251788     48.281133     48.281133     96.562266
     -6.223176     51.171730     51.171730    102.343460
     -6.194564     54.517319     54.517319    109.034639
     -6.165951     58.223018     58.223018    116.446035
     -6.137339     61.616998     61.616998    123.233996
     -6.108727     63.686475     63.686475    127.372950
     -6.080114     63.742893     63.742893    127.485786
     -6.051502     61.916012     61.916012    123.832023
     -6.022890     59.057139     59.057139    118.114277
     -5.994278     56.188315     56.188315    112.376629
     -5.965665     53.940150     53.940150    107.880301
     -5.937053     52.317629     52.317629    104.635258
     -5.908441     50.872775     50.872775    101.745550
     -5.879828     49.126331     49.126331     98.252662
     -5.851216     46.941806     46.941806     93.883612
     -5.822604     44.620817     44.620817     89.241633
     -5.793991     42.715269     42.715269     85.430537
     -5.765379     41.706561     41.706561     83.413122
     -5.736767     41.701848     41.701848     83.403695
     -5.708155     42.278332     42.278332     84.556663
     -5.679542     42.602684     42.602684     85.205368
     -5.650930     41.843360     41.843360     83.686721
     -5.622318     39.669684     39.669684     79.339368
     -5.593705     36.481824     36.481824     72.963648
     -5.565093     33.152237     33.152237     66.304474
     -5.536481     30.462549     30.462549     60.925098
     -5.507868     28.719114     28.719114     57.438228
     -5.479256     27.841293     27.841293     55.682586
     -5.450644     27.699513     27.699513     55.399026
     -5.422031     28.247716     28.247716     56.495432
     -5.393419     29.323475     29.323475     58.646950
     -5.364807     30.443927     30.443927     60.887853
     -5.336195     30.946325     30.946325     61.892650
     -5.307582     30.430038     30.430038     60.860076
     -5.278970     29.146202     29.146202     58.292404
     -5.250358     28.041490     28.041490     56.082979
     -5.221745     28.411120     28.411120     56.822240
     -5.193133     31.300283     31.300283     62.600566
     -5.164521     36.907952     36.907952     73.815903
     -5.135908     44.326484     44.326484     88.652968
     -5.107296     51.857517     51.857517    103.715034
     -5.078684     57.796437     57.796437    115.592874
     -5.050072     61.200646     61.200646    122.401291
     -5.021459     62.123889     62.123889    124.247777
     -4.992847     61.218262     61.218262    122.436524
     -4.964235     59.125188     59.125188    118.250376
     -4.935622     56.182312     56.182312    112.364624
     -4.907010     52.563152     52.563152    105.126304
     -4.878398     48.520769     48.520769     97.041539
     -4.849785     44.423360     44.423360     88.846721
     -4.821173     40.640402     40.640402     81.280804
     -4.792561     37.517324     37.517324     75.034648
     -4.763948     35.436509     35.436509     70.873018
     -4.735336     34.711896     34.711896     69.423791
     -4.706724     35.257016     35.257016     70.514032
     -4.678112     36.378758     36.378758     72.757515
     -4.649499     37.042087     37.042087     74.084173
     -4.620887     36.449965     36.449965     72.899930
     -4.592275     34.456276     34.456276     68.912553
     -4.563662     31.582822     31.582822     63.165644
     -4.535050     28.806102     28.806102     57.612204
     -4.506438     27.302179     27.302179     54.604358
     -4.477825     28.141529     28.141529     56.283058
     -4.449213     31.903870     31.903870     63.807740
     -4.420601     38.336210     38.336210     76.672419
     -4.391989     46.270440     46.270440     92.540880
     -4.363376     53.948840     53.948840    107.897681
     -4.334764     59.686714     59.686714    119.373429
     -4.306152     62.519466     62.519466    125.038932
     -4.277539     62.413951     62.413951    124.827901
     -4.248927     59.973877     59.973877    119.947754
     -4.220315     56.009703     56.009703    112.019406
     -4.191702     51.325769     51.325769    102.651538
     -4.163090     46.675264     46.675264     93.350529
     -4.134478     42.669422     42.669422     85.338844
     -4.105866     39.663264     39.663264     79.326529
     -4.077253     37.770964     37.770964     75.541927
     -4.048641     36.954291     36.954291     73.908582
     -4.020029     36.999251     36.999251     73.998502
     -3.991416     37.431694     37.431694     74.863387
     -3.962804     37.639043     37.639043     75.278086
     -3.934192     37.241953     37.241953     74.483906
     -3.905579     36.361702     36.361702     72.723404
     -3.876967     35.456203     35.456203     70.912406
     -3.848355     34.875192     34.875192     69.750384
     -3.819742     34.586357     34.586357     69.172714
     -3.791130     34.277774     34.277774     68.555549
     -3.762518     33.634804     33.634804     67.269608
     -3.733906     32.520191     32.520191     65.040382
     -3.705293     30.990021     30.990021     61.980042
     -3.676681     29.223059     29.223059     58.446119
     -3.648069     27.455629     27.455629     54.911259
     -3.619456     25.979676     25.979676     51.959353
     -3.590844     25.162879     25.162879     50.325758
     -3.562232     25.349430     25.349430     50.698860
     -3.533619     26.609593     26.609593     53.219186
     -3.505007     28.585207     28.585207     57.170414
     -3.476395     30.706691     30.706691     61.413383
     -3.447783     32.648436     32.648436     65.296873
     -3.419170     34.534789     34.534789     69.069577
     -3.390558     36.656397     36.656397     73.312793
     -3.361946     39.038301     39.038301     78.076603
     -3.333333     41.335822     41.335822     82.671644
     -3.304721     43.072515     43.072515     86.145029
     -3.276109     43.866788     43.866788     87.733576
     -3.247496     43.476108     43.476108     86.952217
     -3.218884     41.815324     41.815324     83.630648
     -3.190272     39.065829     39.065829     78.131658
     -3.161660     35.742260     35.742260     71.484520
     -3.133047     32.555437     32.555437     65.110874
     -3.104435     30.113409     30.113409     60.226818
     -3.075823     28.653500     28.653500     57.307000
     -3.047210     27.995660     27.995660     55.991320
     -3.018598     27.795974     27.795974     55.591949
     -2.989986     27.950564     27.950564     55.901128
     -2.961373     28.779806     28.779806     57.559611
     -2.932761     30.736859     30.736859     61.473719
     -2.904149     33.858744     33.858744     67.717489
     -2.875536     37.489328     37.489328     74.978657
     -2.846924     40.544602     40.544602     81.089204
     -2.818312     42.078622     42.078622     84.157243
     -2.789700     41.724265     41.724265     83.448531
     -2.761087     39.794973     39.794973     79.589945
     -2.732475     37.075693     37.075693     74.151387
     -2.703863     34.420044     34.420044     68.840089
     -2.675250     32.332908     32.332908     64.665816
     -2.646638     30.787446     30.787446     61.574892
     -2.618026     29.421882     29.421882     58.843765
     -2.589413     27.958355     27.958355     55.916711
     -2.560801     26.480544     26.480544     52.961088
     -2.532189     25.342592     25.342592     50.685185
     -2.503577     24.822563     24.822563     49.645127
     -2.474964     24.850931     24.850931     49.701862
     -2.446352     25.070866     25.070866     50.141733
     -2.417740     25.199334     25.199334     50.398667
     -2.389127     25.376638     25.376638     50.753277
     -2.360515     26.154604     26.154604     52.309207
     -2.331903     28.061255     28.061255     56.122510
     -2.303290     31.086419     31.086419     62.172838
     -2.274678     34.570120     34.570120     69.140241
     -2.246066     37.632532     37.632532     75.265063
     -2.217454     39.749440     39.749440     79.498880
     -2.188841     40.946143     40.946143     81.892285
     -2.160229     41.528095     41.528095     83.056189
     -2.131617     41.728077     41.728077     83.456155
     -2.103004     41.584066     41.584066     83.168132
     -2.074392     40.997660     40.997660     81.995319
     -2.045780     39.813775     39.813775     79.627551
     -2.017167     37.926179     37.926179     75.852358
     -1.988555     35.453406     35.453406     70.906812
     -1.959943     32.862900     32.862900     65.725800
     -1.931330     30.862973     30.862973     61.725946
     -1.902718     30.090410     30.090410     60.180820
     -1.874106     30.840990     30.840990     61.681979
     -1.845494     33.018961     33.018961     66.037922
     -1.816881     36.207641     36.207641     72.415282
     -1.788269     39.676377     39.676377     79.352754
     -1.759657     42.380887     42.380887     84.761774
     -1.731044     43.207229     43.207229     86.414458
     -1.702432     41.476349     41.476349     82.952698
     -1.673820     37.333876     37.333876     74.667753
     -1.645207     31.684319     31.684319     63.368639
     -1.616595     25.769221     25.769221     51.538443
     -1.587983     20.727439     20.727439     41.454878
     -1.559371     17.291676     17.291676     34.583352
     -1.530758     15.592998     15.592998     31.185996
     -1.502146     15.129616     15.129616     30.259231
     -1.473534     15.028334     15.028334     30.056668
     -1.444921     14.534866     14.534866     29.069731
     -1.416309     13.420051     13.420051     26.840103
     -1.387697     12.014999     12.014999     24.029998
     -1.359084     10.888481     10.888481     21.776962
     -1.330472     10.453125     10.453125     20.906250
     -1.301860     10.781769     10.781769     21.563539
     -1.273247     11.673225     11.673225     23.346451
     -1.244635     12.799117     12.799117     25.598233
     -1.216023     13.791136     13.791136     27.582272
     -1.187411     14.289562     14.289562     28.579123
     -1.158798     14.024100     14.024100     28.048201
     -1.130186     12.904655     12.904655     25.809310
     -1.101574     11.049498     11.049498     22.098996
     -1.072961      8.743500      8.743500     17.486999
     -1.044349      6.369867      6.369867     12.739734
     -1.015737      4.328001      4.328001      8.656003
     -0.987124      2.927252      2.927252      5.854504
     -0.958512      2.283060      2.283060      4.566119
     -0.929900      2.274835      2.274835      4.549670
     -0.901288      2.606461      2.606461      5.212923
     -0.872675      2.957584      2.957584      5.915168
     -0.844063      3.149303      3.149303      6.298606
     -0.815451      3.210928      3.210928      6.421857
     -0.786838      3.289610      3.289610      6.579221
     -0.758226      3.476100      3.476100      6.952200
     -0.729614      3.698088      3.698088      7.396176
     -0.701001      3.769999      3.769999      7.539997
     -0.672389      3.550337      3.550337      7.100673
     -0.643777      3.071812      3.071812      6.143623
     -0.615165      2.536893      2.536893      5.073786
     -0.586552      2.182315      2.182315      4.364630
     -0.557940      2.119875      2.119875      4.239750
     -0.529328      2.271836      2.271836      4.543671
     -0.500715      2.435784      2.435784      4.871568
     -0.472103      2.418002      2.418002      4.836003
     -0.443491      2.141021      2.141021      4.282042
     -0.414878      1.666536      1.666536      3.333073
     -0.386266      1.138725      1.138725      2.277449
     -0.357654      0.700823      0.700823      1.401645
     -0.329041      0.441365      0.441365      0.882730
     -0.300429      0.387914      0.387914      0.775828
