# EIG2DOS: Utility for SIESTA to obtain the electronic density of states
#  E. Artacho, Apr 1999, A. Garcia, Apr 2012
# ------------------------------------------
# Eigenvalues read from mos2-2graphene.EIG
# Using smearing parameter:   0.100
# Using    700 points in energy range
# Selected bands: 1 to: 1956
# Emin, emax in file for selected band(s):    -23.0692400    153.3749800
# Nbands, Nspin, Nk   =   1956     1    13
# E_F                 =    -4.8540 eV --> (shifted to ZERO)
# Broadening          =     0.1000 eV
#
#        E            N(up)  (=)   N(down)         Ntot
    -10.000000      5.130111      5.130111     10.260222
     -9.971388      4.025420      4.025420      8.050841
     -9.942775      3.634949      3.634949      7.269898
     -9.914163      3.901732      3.901732      7.803464
     -9.885551      4.644679      4.644679      9.289358
     -9.856938      5.701994      5.701994     11.403989
     -9.828326      6.970720      6.970720     13.941440
     -9.799714      8.332921      8.332921     16.665842
     -9.771102      9.570305      9.570305     19.140609
     -9.742489     10.371018     10.371018     20.742036
     -9.713877     10.441326     10.441326     20.882652
     -9.685265      9.648955      9.648955     19.297911
     -9.656652      8.106162      8.106162     16.212324
     -9.628040      6.140863      6.140863     12.281726
     -9.599428      4.170748      4.170748      8.341496
     -9.570815      2.554834      2.554834      5.109669
     -9.542203      1.512766      1.512766      3.025532
     -9.513591      1.153923      1.153923      2.307846
     -9.484979      1.571031      1.571031      3.142061
     -9.456366      2.889924      2.889924      5.779849
     -9.427754      5.187355      5.187355     10.374709
     -9.399142      8.299824      8.299824     16.599649
     -9.370529     11.677811     11.677811     23.355622
     -9.341917     14.466511     14.466511     28.933022
     -9.313305     15.847150     15.847150     31.694301
     -9.284692     15.449456     15.449456     30.898912
     -9.256080     13.553162     13.553162     27.106323
     -9.227468     10.936635     10.936635     21.873271
     -9.198856      8.483247      8.483247     16.966495
     -9.170243      6.803500      6.803500     13.607000
     -9.141631      6.070351      6.070351     12.140702
     -9.113019      6.082580      6.082580     12.165160
     -9.084406      6.442570      6.442570     12.885139
     -9.055794      6.751880      6.751880     13.503760
     -9.027182      6.800528      6.800528     13.601055
     -8.998569      6.707633      6.707633     13.415265
     -8.969957      6.891329      6.891329     13.782657
     -8.941345      7.792370      7.792370     15.584740
     -8.912732      9.496242      9.496242     18.992484
     -8.884120     11.566724     11.566724     23.133447
     -8.855508     13.283677     13.283677     26.567354
     -8.826896     14.132788     14.132788     28.265577
     -8.798283     14.148872     14.148872     28.297743
     -8.769671     13.819799     13.819799     27.639598
     -8.741059     13.636349     13.636349     27.272697
     -8.712446     13.683789     13.683789     27.367578
     -8.683834     13.627048     13.627048     27.254096
     -8.655222     13.073512     13.073512     26.147023
     -8.626609     11.947824     11.947824     23.895649
     -8.597997     10.534254     10.534254     21.068509
     -8.569385      9.215885      9.215885     18.431770
     -8.540773      8.242237      8.242237     16.484475
     -8.512160      7.740663      7.740663     15.481327
     -8.483548      7.832855      7.832855     15.665710
     -8.454936      8.602363      8.602363     17.204725
     -8.426323      9.912414      9.912414     19.824828
     -8.397711     11.324557     11.324557     22.649113
     -8.369099     12.276189     12.276189     24.552379
     -8.340486     12.378025     12.378025     24.756050
     -8.311874     11.582213     11.582213     23.164426
     -8.283262     10.152956     10.152956     20.305912
     -8.254649      8.563752      8.563752     17.127504
     -8.226037      7.409187      7.409187     14.818375
     -8.197425      7.267926      7.267926     14.535852
     -8.168813      8.447641      8.447641     16.895283
     -8.140200     10.720045     10.720045     21.440090
     -8.111588     13.298455     13.298455     26.596910
     -8.082976     15.211843     15.211843     30.423686
     -8.054363     15.904467     15.904467     31.808934
     -8.025751     15.609266     15.609266     31.218532
     -7.997139     15.130827     15.130827     30.261654
     -7.968526     15.153658     15.153658     30.307317
     -7.939914     15.645801     15.645801     31.291601
     -7.911302     15.878413     15.878413     31.756825
     -7.882690     15.038128     15.038128     30.076257
     -7.854077     12.896691     12.896691     25.793383
     -7.825465     10.001216     10.001216     20.002431
     -7.796853      7.300236      7.300236     14.600473
     -7.768240      5.556449      5.556449     11.112897
     -7.739628      4.967825      4.967825      9.935650
     -7.711016      5.186776      5.186776     10.373553
     -7.682403      5.657150      5.657150     11.314300
     -7.653791      6.030760      6.030760     12.061521
     -7.625179      6.395806      6.395806     12.791612
     -7.596567      7.166367      7.166367     14.332735
     -7.567954      8.721618      8.721618     17.443237
     -7.539342     11.077340     11.077340     22.154681
     -7.510730     13.833612     13.833612     27.667224
     -7.482117     16.399613     16.399613     32.799227
     -7.453505     18.286427     18.286427     36.572854
     -7.424893     19.263310     19.263310     38.526621
     -7.396280     19.335307     19.335307     38.670614
     -7.367668     18.633361     18.633361     37.266722
     -7.339056     17.317024     17.317024     34.634048
     -7.310443     15.527350     15.527350     31.054700
     -7.281831     13.381516     13.381516     26.763032
     -7.253219     10.997224     10.997224     21.994447
     -7.224607      8.540818      8.540818     17.081635
     -7.195994      6.276138      6.276138     12.552276
     -7.167382      4.569929      4.569929      9.139859
     -7.138770      3.823811      3.823811      7.647623
     -7.110157      4.343888      4.343888      8.687777
     -7.081545      6.191314      6.191314     12.382628
     -7.052933      9.085009      9.085009     18.170019
     -7.024320     12.448609     12.448609     24.897218
     -6.995708     15.634722     15.634722     31.269444
     -6.967096     18.201034     18.201034     36.402068
     -6.938484     20.019975     20.019975     40.039950
     -6.909871     21.146755     21.146755     42.293511
     -6.881259     21.629470     21.629470     43.258940
     -6.852647     21.498690     21.498690     42.997380
     -6.824034     20.927260     20.927260     41.854519
     -6.795422     20.300225     20.300225     40.600449
     -6.766810     20.009195     20.009195     40.018390
     -6.738197     20.124164     20.124164     40.248328
     -6.709585     20.299533     20.299533     40.599067
     -6.680973     20.070976     20.070976     40.141951
     -6.652361     19.294799     19.294799     38.589599
     -6.623748     18.328787     18.328787     36.657573
     -6.595136     17.817367     17.817367     35.634733
     -6.566524     18.300929     18.300929     36.601857
     -6.537911     19.950355     19.950355     39.900710
     -6.509299     22.550077     22.550077     45.100153
     -6.480687     25.658236     25.658236     51.316472
     -6.452074     28.792878     28.792878     57.585755
     -6.423462     31.540137     31.540137     63.080275
     -6.394850     33.608679     33.608679     67.217359
     -6.366237     34.913540     34.913540     69.827081
     -6.337625     35.652207     35.652207     71.304415
     -6.309013     36.212481     36.212481     72.424963
     -6.280401     36.896083     36.896083     73.792167
     -6.251788     37.736099     37.736099     75.472198
     -6.223176     38.680095     38.680095     77.360189
     -6.194564     39.994120     39.994120     79.988240
     -6.165951     42.411968     42.411968     84.823936
     -6.137339     46.760914     46.760914     93.521828
     -6.108727     53.310959     53.310959    106.621918
     -6.080114     61.330888     61.330888    122.661777
     -6.051502     69.126305     69.126305    138.252611
     -6.022890     74.544654     74.544654    149.089308
     -5.994278     75.807893     75.807893    151.615786
     -5.965665     72.402761     72.402761    144.805522
     -5.937053     65.538041     65.538041    131.076081
     -5.908441     57.719558     57.719558    115.439116
     -5.879828     51.535522     51.535522    103.071043
     -5.851216     48.373593     48.373593     96.747186
     -5.822604     47.886948     47.886948     95.773895
     -5.793991     48.506008     48.506008     97.012015
     -5.765379     48.589755     48.589755     97.179510
     -5.736767     47.405491     47.405491     94.810982
     -5.708155     45.300198     45.300198     90.600395
     -5.679542     43.094664     43.094664     86.189328
     -5.650930     41.337052     41.337052     82.674104
     -5.622318     40.032033     40.032033     80.064067
     -5.593705     38.901621     38.901621     77.803242
     -5.565093     37.751788     37.751788     75.503577
     -5.536481     36.551132     36.551132     73.102263
     -5.507868     35.255229     35.255229     70.510457
     -5.479256     33.737101     33.737101     67.474201
     -5.450644     32.014441     32.014441     64.028881
     -5.422031     30.486830     30.486830     60.973661
     -5.393419     29.758318     29.758318     59.516637
     -5.364807     30.086584     30.086584     60.173168
     -5.336195     31.012277     31.012277     62.024554
     -5.307582     31.609822     31.609822     63.219645
     -5.278970     31.167380     31.167380     62.334760
     -5.250358     29.682872     29.682872     59.365745
     -5.221745     27.797984     27.797984     55.595968
     -5.193133     26.343505     26.343505     52.687010
     -5.164521     25.919915     25.919915     51.839831
     -5.135908     26.747773     26.747773     53.495547
     -5.107296     28.739711     28.739711     57.479423
     -5.078684     31.636357     31.636357     63.272714
     -5.050072     35.087529     35.087529     70.175057
     -5.021459     38.666279     38.666279     77.332558
     -4.992847     41.916237     41.916237     83.832473
     -4.964235     44.524878     44.524878     89.049756
     -4.935622     46.539297     46.539297     93.078594
     -4.907010     48.396987     48.396987     96.793975
     -4.878398     50.652202     50.652202    101.304404
     -4.849785     53.551655     53.551655    107.103311
     -4.821173     56.759829     56.759829    113.519657
     -4.792561     59.425630     59.425630    118.851261
     -4.763948     60.553720     60.553720    121.107440
     -4.735336     59.471245     59.471245    118.942490
     -4.706724     56.129223     56.129223    112.258446
     -4.678112     51.070909     51.070909    102.141817
     -4.649499     45.132228     45.132228     90.264456
     -4.620887     39.140896     39.140896     78.281793
     -4.592275     33.808186     33.808186     67.616371
     -4.563662     29.725428     29.725428     59.450855
     -4.535050     27.269735     27.269735     54.539470
     -4.506438     26.441007     26.441007     52.882013
     -4.477825     26.857116     26.857116     53.714232
     -4.449213     28.001747     28.001747     56.003495
     -4.420601     29.523409     29.523409     59.046818
     -4.391989     31.336368     31.336368     62.672735
     -4.363376     33.527891     33.527891     67.055782
     -4.334764     36.253931     36.253931     72.507861
     -4.306152     39.665520     39.665520     79.331040
     -4.277539     43.737288     43.737288     87.474577
     -4.248927     48.039203     48.039203     96.078405
     -4.220315     51.777042     51.777042    103.554085
     -4.191702     54.252071     54.252071    108.504143
     -4.163090     55.325888     55.325888    110.651776
     -4.134478     55.349313     55.349313    110.698626
     -4.105866     54.658525     54.658525    109.317050
     -4.077253     53.299184     53.299184    106.598367
     -4.048641     51.281322     51.281322    102.562643
     -4.020029     48.911250     48.911250     97.822501
     -3.991416     46.675864     46.675864     93.351728
     -3.962804     44.803914     44.803914     89.607827
     -3.934192     43.059611     43.059611     86.119222
     -3.905579     41.026679     41.026679     82.053358
     -3.876967     38.574362     38.574362     77.148725
     -3.848355     36.029320     36.029320     72.058639
     -3.819742     33.922696     33.922696     67.845393
     -3.791130     32.605180     32.605180     65.210360
     -3.762518     32.075061     32.075061     64.150122
     -3.733906     32.074101     32.074101     64.148201
     -3.705293     32.282848     32.282848     64.565697
     -3.676681     32.481601     32.481601     64.963202
     -3.648069     32.617744     32.617744     65.235488
     -3.619456     32.716943     32.716943     65.433887
     -3.590844     32.679128     32.679128     65.358256
     -3.562232     32.197937     32.197937     64.395873
     -3.533619     30.992741     30.992741     61.985482
     -3.505007     29.190516     29.190516     58.381033
     -3.476395     27.470984     27.470984     54.941968
     -3.447783     26.769636     26.769636     53.539272
     -3.419170     27.696172     27.696172     55.392345
     -3.390558     30.057525     30.057525     60.115051
     -3.361946     32.866812     32.866812     65.733624
     -3.333333     34.934605     34.934605     69.869210
     -3.304721     35.663395     35.663395     71.326791
     -3.276109     35.402676     35.402676     70.805351
     -3.247496     35.049872     35.049872     70.099745
     -3.218884     35.265125     35.265125     70.530249
     -3.190272     35.996821     35.996821     71.993642
     -3.161660     36.647656     36.647656     73.295312
     -3.133047     36.589725     36.589725     73.179450
     -3.104435     35.537978     35.537978     71.075957
     -3.075823     33.618791     33.618791     67.237581
     -3.047210     31.298549     31.298549     62.597098
     -3.018598     29.268408     29.268408     58.536816
     -2.989986     28.184681     28.184681     56.369362
     -2.961373     28.286415     28.286415     56.572830
     -2.932761     29.208254     29.208254     58.416509
     -2.904149     30.255064     30.255064     60.510128
     -2.875536     30.965179     30.965179     61.930358
     -2.846924     31.490048     31.490048     62.980095
     -2.818312     32.476297     32.476297     64.952594
     -2.789700     34.521235     34.521235     69.042470
     -2.761087     37.569417     37.569417     75.138835
     -2.732475     40.707267     40.707267     81.414533
     -2.703863     42.597996     42.597996     85.195992
     -2.675250     42.302491     42.302491     84.604983
     -2.646638     39.863216     39.863216     79.726433
     -2.618026     36.219216     36.219216     72.438432
     -2.589413     32.588335     32.588335     65.176671
     -2.560801     29.806525     29.806525     59.613050
     -2.532189     28.023579     28.023579     56.047158
     -2.503577     26.865184     26.865184     53.730367
     -2.474964     25.903955     25.903955     51.807911
     -2.446352     25.101292     25.101292     50.202584
     -2.417740     24.896230     24.896230     49.792461
     -2.389127     25.874815     25.874815     51.749629
     -2.360515     28.257948     28.257948     56.515896
     -2.331903     31.569103     31.569103     63.138205
     -2.303290     34.750317     34.750317     69.500634
     -2.274678     36.727437     36.727437     73.454875
     -2.246066     37.063477     37.063477     74.126954
     -2.217454     36.171368     36.171368     72.342736
     -2.188841     34.881410     34.881410     69.762820
     -2.160229     33.759287     33.759287     67.518574
     -2.131617     32.806764     32.806764     65.613528
     -2.103004     31.765971     31.765971     63.531943
     -2.074392     30.641725     30.641725     61.283449
     -2.045780     29.890333     29.890333     59.780666
     -2.017167     30.107269     30.107269     60.214538
     -1.988555     31.528437     31.528437     63.056873
     -1.959943     33.791958     33.791958     67.583916
     -1.931330     36.164741     36.164741     72.329483
     -1.902718     38.065496     38.065496     76.130991
     -1.874106     39.448570     39.448570     78.897141
     -1.845494     40.678250     40.678250     81.356500
     -1.816881     41.990675     41.990675     83.981350
     -1.788269     43.092661     43.092661     86.185323
     -1.759657     43.318330     43.318330     86.636661
     -1.731044     42.166665     42.166665     84.333330
     -1.702432     39.691122     39.691122     79.382243
     -1.673820     36.447821     36.447821     72.895642
     -1.645207     33.144806     33.144806     66.289613
     -1.616595     30.307434     30.307434     60.614869
     -1.587983     28.143078     28.143078     56.286155
     -1.559371     26.574039     26.574039     53.148077
     -1.530758     25.321600     25.321600     50.643200
     -1.502146     24.016156     24.016156     48.032311
     -1.473534     22.389897     22.389897     44.779793
     -1.444921     20.486325     20.486325     40.972649
     -1.416309     18.662980     18.662980     37.325959
     -1.387697     17.305521     17.305521     34.611042
     -1.359084     16.519519     16.519519     33.039039
     -1.330472     16.126250     16.126250     32.252499
     -1.301860     15.916016     15.916016     31.832031
     -1.273247     15.806466     15.806466     31.612932
     -1.244635     15.738577     15.738577     31.477154
     -1.216023     15.526077     15.526077     31.052153
     -1.187411     14.905854     14.905854     29.811708
     -1.158798     13.733369     13.733369     27.466739
     -1.130186     12.097742     12.097742     24.195483
     -1.101574     10.269794     10.269794     20.539588
     -1.072961      8.571000      8.571000     17.141999
     -1.044349      7.257753      7.257753     14.515506
     -1.015737      6.445882      6.445882     12.891764
     -0.987124      6.076702      6.076702     12.153405
     -0.958512      5.937078      5.937078     11.874156
     -0.929900      5.748976      5.748976     11.497951
     -0.901288      5.317285      5.317285     10.634571
     -0.872675      4.660720      4.660720      9.321441
     -0.844063      4.010990      4.010990      8.021980
     -0.815451      3.642367      3.642367      7.284735
     -0.786838      3.649196      3.649196      7.298392
     -0.758226      3.856753      3.856753      7.713507
     -0.729614      3.945328      3.945328      7.890656
     -0.701001      3.687679      3.687679      7.375357
     -0.672389      3.111193      3.111193      6.222386
     -0.643777      2.467709      2.467709      4.935417
     -0.615165      2.050744      2.050744      4.101489
     -0.586552      2.002743      2.002743      4.005485
     -0.557940      2.236560      2.236560      4.473121
     -0.529328      2.503848      2.503848      5.007695
     -0.500715      2.554175      2.554175      5.108351
     -0.472103      2.280434      2.280434      4.560868
     -0.443491      1.759452      1.759452      3.518904
     -0.414878      1.175888      1.175888      2.351776
     -0.386266      0.704875      0.704875      1.409750
     -0.357654      0.442374      0.442374      0.884748
     -0.329041      0.405841      0.405841      0.811683
     -0.300429      0.561830      0.561830      1.123659
