# EIG2DOS: Utility for SIESTA to obtain the electronic density of states
#  E. Artacho, Apr 1999, A. Garcia, Apr 2012
# ------------------------------------------
# Eigenvalues read from mos2-2graphene.EIG
# Using smearing parameter:   0.100
# Using    700 points in energy range
# Selected bands: 1 to: 1956
# Emin, emax in file for selected band(s):    -23.0518200    153.3970900
# Nbands, Nspin, Nk   =   1956     1    13
# E_F                 =    -4.8292 eV --> (shifted to ZERO)
# Broadening          =     0.1000 eV
#
#        E            N(up)  (=)   N(down)         Ntot
    -10.000000      5.454396      5.454396     10.908792
     -9.971388      4.409227      4.409227      8.818454
     -9.942775      3.949729      3.949729      7.899458
     -9.914163      4.100699      4.100699      8.201398
     -9.885551      4.760889      4.760889      9.521778
     -9.856938      5.776837      5.776837     11.553675
     -9.828326      6.988483      6.988483     13.976966
     -9.799714      8.229125      8.229125     16.458250
     -9.771102      9.301184      9.301184     18.602368
     -9.742489      9.970164      9.970164     19.940329
     -9.713877     10.015052     10.015052     20.030105
     -9.685265      9.326246      9.326246     18.652492
     -9.656652      7.982056      7.982056     15.964112
     -9.628040      6.237720      6.237720     12.475439
     -9.599428      4.434137      4.434137      8.868274
     -9.570815      2.892978      2.892978      5.785955
     -9.542203      1.857983      1.857983      3.715966
     -9.513591      1.498196      1.498196      2.996392
     -9.484979      1.942222      1.942222      3.884445
     -9.456366      3.281222      3.281222      6.562444
     -9.427754      5.496105      5.496105     10.992209
     -9.399142      8.343098      8.343098     16.686195
     -9.370529     11.305471     11.305471     22.610942
     -9.341917     13.701353     13.701353     27.402707
     -9.313305     14.929026     14.929026     29.858052
     -9.284692     14.722911     14.722911     29.445821
     -9.256080     13.271832     13.271832     26.543664
     -9.227468     11.129932     11.129932     22.259865
     -9.198856      8.973731      8.973731     17.947462
     -9.170243      7.338916      7.338916     14.677831
     -9.141631      6.457210      6.457210     12.914421
     -9.113019      6.240287      6.240287     12.480573
     -9.084406      6.392530      6.392530     12.785061
     -9.055794      6.599133      6.599133     13.198266
     -9.027182      6.710609      6.710609     13.421218
     -8.998569      6.830163      6.830163     13.660327
     -8.969957      7.238050      7.238050     14.476101
     -8.941345      8.176980      8.176980     16.353961
     -8.912732      9.636133      9.636133     19.272266
     -8.884120     11.303820     11.303820     22.607641
     -8.855508     12.739369     12.739369     25.478738
     -8.826896     13.634103     13.634103     27.268206
     -8.798283     13.965744     13.965744     27.931488
     -8.769671     13.946811     13.946811     27.893622
     -8.741059     13.822276     13.822276     27.644552
     -8.712446     13.676221     13.676221     27.352442
     -8.683834     13.395890     13.395890     26.791780
     -8.655222     12.806693     12.806693     25.613386
     -8.626609     11.846394     11.846394     23.692789
     -8.597997     10.636659     10.636659     21.273318
     -8.569385      9.427009      9.427009     18.854019
     -8.540773      8.488472      8.488472     16.976944
     -8.512160      8.032701      8.032701     16.065401
     -8.483548      8.167040      8.167040     16.334079
     -8.454936      8.860035      8.860035     17.720069
     -8.426323      9.919950      9.919950     19.839900
     -8.397711     11.020740     11.020740     22.041481
     -8.369099     11.789072     11.789072     23.578145
     -8.340486     11.926410     11.926410     23.852820
     -8.311874     11.328288     11.328288     22.656577
     -8.283262     10.159682     10.159682     20.319363
     -8.254649      8.841049      8.841049     17.682098
     -8.226037      7.924988      7.924988     15.849976
     -8.197425      7.890846      7.890846     15.781692
     -8.168813      8.923903      8.923903     17.847807
     -8.140200     10.783001     10.783001     21.566002
     -8.111588     12.870548     12.870548     25.741096
     -8.082976     14.525528     14.525528     29.051056
     -8.054363     15.383320     15.383320     30.766641
     -8.025751     15.549587     15.549587     31.099175
     -7.997139     15.446228     15.446228     30.892455
     -7.968526     15.437424     15.437424     30.874849
     -7.939914     15.522595     15.522595     31.045190
     -7.911302     15.330808     15.330808     30.661615
     -7.882690     14.413273     14.413273     28.826545
     -7.854077     12.610227     12.610227     25.220454
     -7.825465     10.225826     10.225826     20.451652
     -7.796853      7.886736      7.886736     15.773472
     -7.768240      6.185739      6.185739     12.371479
     -7.739628      5.367817      5.367817     10.735634
     -7.711016      5.275577      5.275577     10.551153
     -7.682403      5.561639      5.561639     11.123278
     -7.653791      5.981689      5.981689     11.963378
     -7.625179      6.555107      6.555107     13.110214
     -7.596567      7.504816      7.504816     15.009632
     -7.567954      9.045991      9.045991     18.091981
     -7.539342     11.181589     11.181589     22.363178
     -7.510730     13.639365     13.639365     27.278731
     -7.482117     15.977919     15.977919     31.955837
     -7.453505     17.777893     17.777893     35.555787
     -7.424893     18.791395     18.791395     37.582791
     -7.396280     18.970432     18.970432     37.940863
     -7.367668     18.395192     18.395192     36.790384
     -7.339056     17.187662     17.187662     34.375325
     -7.310443     15.471338     15.471338     30.942677
     -7.281831     13.374805     13.374805     26.749610
     -7.253219     11.052200     11.052200     22.104399
     -7.224607      8.705290      8.705290     17.410580
     -7.195994      6.599846      6.599846     13.199692
     -7.167382      5.061814      5.061814     10.123628
     -7.138770      4.428999      4.428999      8.857997
     -7.110157      4.946454      4.946454      9.892908
     -7.081545      6.642912      6.642912     13.285823
     -7.052933      9.270661      9.270661     18.541322
     -7.024320     12.367951     12.367951     24.735901
     -6.995708     15.417104     15.417104     30.834208
     -6.967096     18.005531     18.005531     36.011062
     -6.938484     19.907170     19.907170     39.814341
     -6.909871     21.066313     21.066313     42.132626
     -6.881259     21.534357     21.534357     43.068713
     -6.852647     21.438114     21.438114     42.876227
     -6.824034     21.003811     21.003811     42.007622
     -6.795422     20.555657     20.555657     41.111313
     -6.766810     20.394648     20.394648     40.789296
     -6.738197     20.612733     20.612733     41.225467
     -6.709585     21.031868     21.031868     42.063735
     -6.680973     21.363332     21.363332     42.726665
     -6.652361     21.456082     21.456082     42.912164
     -6.623748     21.429015     21.429015     42.858031
     -6.595136     21.613294     21.613294     43.226588
     -6.566524     22.367469     22.367469     44.734938
     -6.537911     23.865729     23.865729     47.731458
     -6.509299     25.969923     25.969923     51.939846
     -6.480687     28.294857     28.294857     56.589714
     -6.452074     30.466693     30.466693     60.933385
     -6.423462     32.378048     32.378048     64.756096
     -6.394850     34.192866     34.192866     68.385732
     -6.366237     36.086830     36.086830     72.173660
     -6.337625     37.993952     37.993952     75.987904
     -6.309013     39.626832     39.626832     79.253663
     -6.280401     40.756483     40.756483     81.512966
     -6.251788     41.505973     41.505973     83.011946
     -6.223176     42.439188     42.439188     84.878377
     -6.194564     44.399624     44.399624     88.799247
     -6.165951     48.166231     48.166231     96.332461
     -6.137339     54.011137     54.011137    108.022274
     -6.108727     61.298796     61.298796    122.597591
     -6.080114     68.397868     68.397868    136.795736
     -6.051502     73.172117     73.172117    146.344234
     -6.022890     73.963672     73.963672    147.927344
     -5.994278     70.499183     70.499183    140.998366
     -5.965665     64.074362     64.074362    128.148724
     -5.937053     56.883759     56.883759    113.767517
     -5.908441     50.974526     50.974526    101.949052
     -5.879828     47.449838     47.449838     94.899677
     -5.851216     46.238433     46.238433     92.476865
     -5.822604     46.389422     46.389422     92.778844
     -5.793991     46.668028     46.668028     93.336056
     -5.765379     46.164639     46.164639     92.329278
     -5.736767     44.653900     44.653900     89.307800
     -5.708155     42.577876     42.577876     85.155752
     -5.679542     40.705084     40.705084     81.410168
     -5.650930     39.634099     39.634099     79.268199
     -5.622318     39.376200     39.376200     78.752400
     -5.593705     39.277275     39.277275     78.554551
     -5.565093     38.410458     38.410458     76.820915
     -5.536481     36.235061     36.235061     72.470123
     -5.507868     33.032733     33.032733     66.065466
     -5.479256     29.765624     29.765624     59.531248
     -5.450644     27.495848     27.495848     54.991697
     -5.422031     26.832264     26.832264     53.664529
     -5.393419     27.714081     27.714081     55.428162
     -5.364807     29.502770     29.502770     59.005541
     -5.336195     31.241734     31.241734     62.483468
     -5.307582     32.016922     32.016922     64.033843
     -5.278970     31.348560     31.348560     62.697121
     -5.250358     29.449014     29.449014     58.898029
     -5.221745     27.190814     27.190814     54.381628
     -5.193133     25.792001     25.792001     51.584002
     -5.164521     26.365530     26.365530     52.731060
     -5.135908     29.479443     29.479443     58.958885
     -5.107296     34.848632     34.848632     69.697264
     -5.078684     41.325623     41.325623     82.651247
     -5.050072     47.328565     47.328565     94.657130
     -5.021459     51.577508     51.577508    103.155017
     -4.992847     53.687019     53.687019    107.374038
     -4.964235     54.182433     54.182433    108.364866
     -4.935622     53.961019     53.961019    107.922038
     -4.907010     53.680079     53.680079    107.360158
     -4.878398     53.528642     53.528642    107.057285
     -4.849785     53.382858     53.382858    106.765715
     -4.821173     53.016667     53.016667    106.033333
     -4.792561     52.179821     52.179821    104.359642
     -4.763948     50.649732     50.649732    101.299465
     -4.735336     48.352077     48.352077     96.704153
     -4.706724     45.426965     45.426965     90.853930
     -4.678112     42.127043     42.127043     84.254087
     -4.649499     38.674043     38.674043     77.348085
     -4.620887     35.253815     35.253815     70.507630
     -4.592275     32.099035     32.099035     64.198071
     -4.563662     29.474746     29.474746     58.949493
     -4.535050     27.555500     27.555500     55.111000
     -4.506438     26.380947     26.380947     52.761894
     -4.477825     25.992594     25.992594     51.985189
     -4.449213     26.612069     26.612069     53.224138
     -4.420601     28.656556     28.656556     57.313111
     -4.391989     32.545264     32.545264     65.090527
     -4.363376     38.378514     38.378514     76.757027
     -4.334764     45.594755     45.594755     91.189511
     -4.306152     52.823276     52.823276    105.646553
     -4.277539     58.264843     58.264843    116.529686
     -4.248927     60.609719     60.609719    121.219438
     -4.220315     59.829529     59.829529    119.659057
     -4.191702     57.061852     57.061852    114.123703
     -4.163090     53.673119     53.673119    107.346237
     -4.134478     50.447029     50.447029    100.894057
     -4.105866     47.576682     47.576682     95.153365
     -4.077253     45.142406     45.142406     90.284811
     -4.048641     43.343230     43.343230     86.686461
     -4.020029     42.279178     42.279178     84.558357
     -3.991416     41.695433     41.695433     83.390866
     -3.962804     41.068125     41.068125     82.136251
     -3.934192     39.954477     39.954477     79.908954
     -3.905579     38.273048     38.273048     76.546097
     -3.876967     36.318538     36.318538     72.637076
     -3.848355     34.555833     34.555833     69.111665
     -3.819742     33.338093     33.338093     66.676187
     -3.791130     32.709045     32.709045     65.418090
     -3.762518     32.429910     32.429910     64.859820
     -3.733906     32.218579     32.218579     64.437159
     -3.705293     31.970623     31.970623     63.941246
     -3.676681     31.737960     31.737960     63.475919
     -3.648069     31.521199     31.521199     63.042399
     -3.619456     31.141349     31.141349     62.282699
     -3.590844     30.348223     30.348223     60.696445
     -3.562232     29.070390     29.070390     58.140780
     -3.533619     27.596065     27.596065     55.192130
     -3.505007     26.533830     26.533830     53.067659
     -3.476395     26.532540     26.532540     53.065080
     -3.447783     27.894444     27.894444     55.788887
     -3.419170     30.340000     30.340000     60.680001
     -3.390558     33.136501     33.136501     66.273002
     -3.361946     35.535933     35.535933     71.071867
     -3.333333     37.191549     37.191549     74.383098
     -3.304721     38.230728     38.230728     76.461456
     -3.276109     38.973919     38.973919     77.947838
     -3.247496     39.586603     39.586603     79.173206
     -3.218884     39.936805     39.936805     79.873609
     -3.190272     39.686380     39.686380     79.372761
     -3.161660     38.489513     38.489513     76.979026
     -3.133047     36.211195     36.211195     72.422390
     -3.104435     33.117921     33.117921     66.235842
     -3.075823     29.921098     29.921098     59.842196
     -3.047210     27.533793     27.533793     55.067586
     -3.018598     26.590652     26.590652     53.181304
     -2.989986     27.055578     27.055578     54.111157
     -2.961373     28.287545     28.287545     56.575090
     -2.932761     29.586594     29.586594     59.173187
     -2.904149     30.767882     30.767882     61.535763
     -2.875536     32.236444     32.236444     64.472888
     -2.846924     34.502553     34.502553     69.005106
     -2.818312     37.585756     37.585756     75.171512
     -2.789700     40.787582     40.787582     81.575163
     -2.761087     42.965447     42.965447     85.930893
     -2.732475     43.129612     43.129612     86.259224
     -2.703863     41.042107     41.042107     82.084214
     -2.675250     37.442373     37.442373     74.884747
     -2.646638     33.658384     33.658384     67.316767
     -2.618026     30.791488     30.791488     61.582975
     -2.589413     29.079378     29.079378     58.158756
     -2.560801     27.950495     27.950495     55.900989
     -2.532189     26.691040     26.691040     53.382079
     -2.503577     25.133704     25.133704     50.267408
     -2.474964     23.818421     23.818421     47.636842
     -2.446352     23.555249     23.555249     47.110497
     -2.417740     24.778941     24.778941     49.557881
     -2.389127     27.194974     27.194974     54.389948
     -2.360515     29.961158     29.961158     59.922316
     -2.331903     32.242678     32.242678     64.485356
     -2.303290     33.710701     33.710701     67.421401
     -2.274678     34.612911     34.612911     69.225822
     -2.246066     35.388476     35.388476     70.776951
     -2.217454     36.176438     36.176438     72.352876
     -2.188841     36.666608     36.666608     73.333215
     -2.160229     36.439788     36.439788     72.879575
     -2.131617     35.474593     35.474593     70.949186
     -2.103004     34.319672     34.319672     68.639345
     -2.074392     33.746301     33.746301     67.492602
     -2.045780     34.176101     34.176101     68.352203
     -2.017167     35.348924     35.348924     70.697849
     -1.988555     36.484821     36.484821     72.969642
     -1.959943     36.847318     36.847318     73.694635
     -1.931330     36.324757     36.324757     72.649514
     -1.902718     35.571169     35.571169     71.142338
     -1.874106     35.547428     35.547428     71.094857
     -1.845494     36.804081     36.804081     73.608161
     -1.816881     39.059120     39.059120     78.118239
     -1.788269     41.349931     41.349931     82.699862
     -1.759657     42.595412     42.595412     85.190824
     -1.731044     42.158666     42.158666     84.317331
     -1.702432     40.062794     40.062794     80.125588
     -1.673820     36.805219     36.805219     73.610439
     -1.645207     33.007385     33.007385     66.014770
     -1.616595     29.173282     29.173282     58.346563
     -1.587983     25.640482     25.640482     51.280964
     -1.559371     22.640663     22.640663     45.281325
     -1.530758     20.348032     20.348032     40.696064
     -1.502146     18.832722     18.832722     37.665444
     -1.473534     17.948882     17.948882     35.897764
     -1.444921     17.317752     17.317752     34.635505
     -1.416309     16.523851     16.523851     33.047702
     -1.387697     15.406677     15.406677     30.813353
     -1.359084     14.186074     14.186074     28.372149
     -1.330472     13.301628     13.301628     26.603257
     -1.301860     13.094882     13.094882     26.189764
     -1.273247     13.556253     13.556253     27.112506
     -1.244635     14.288134     14.288134     28.576268
     -1.216023     14.714384     14.714384     29.428768
     -1.187411     14.416244     14.416244     28.832488
     -1.158798     13.352594     13.352594     26.705187
     -1.130186     11.796864     11.796864     23.593728
     -1.101574     10.087914     10.087914     20.175827
     -1.072961      8.449561      8.449561     16.899123
     -1.044349      6.994798      6.994798     13.989595
     -1.015737      5.804905      5.804905     11.609811
     -0.987124      4.942764      4.942764      9.885528
     -0.958512      4.397398      4.397398      8.794796
     -0.929900      4.055745      4.055745      8.111490
     -0.901288      3.767331      3.767331      7.534662
     -0.872675      3.464487      3.464487      6.928975
     -0.844063      3.223924      3.223924      6.447848
     -0.815451      3.188975      3.188975      6.377949
     -0.786838      3.405590      3.405590      6.811181
     -0.758226      3.725624      3.725624      7.451248
     -0.729614      3.881023      3.881023      7.762045
     -0.701001      3.676790      3.676790      7.353579
     -0.672389      3.142397      3.142397      6.284793
     -0.643777      2.518450      2.518450      5.036900
     -0.615165      2.093922      2.093922      4.187844
     -0.586552      2.019982      2.019982      4.039963
     -0.557940      2.226026      2.226026      4.452052
     -0.529328      2.479023      2.479023      4.958046
     -0.500715      2.534970      2.534970      5.069939
     -0.472103      2.281066      2.281066      4.562132
     -0.443491      1.780598      1.780598      3.561196
     -0.414878      1.206386      1.206386      2.412772
     -0.386266      0.730144      0.730144      1.460289
     -0.357654      0.451812      0.451812      0.903624
     -0.329041      0.395359      0.395359      0.790719
     -0.300429      0.533891      0.533891      1.067782
