# EIG2DOS: Utility for SIESTA to obtain the electronic density of states
#  E. Artacho, Apr 1999, A. Garcia, Apr 2012
# ------------------------------------------
# Eigenvalues read from mos2-2graphene.EIG
# Using smearing parameter:   0.100
# Using    700 points in energy range
# Selected bands: 1 to: 1956
# Emin, emax in file for selected band(s):    -23.0196300    153.4586900
# Nbands, Nspin, Nk   =   1956     1    13
# E_F                 =    -4.8153 eV --> (shifted to ZERO)
# Broadening          =     0.1000 eV
#
#        E            N(up)  (=)   N(down)         Ntot
    -10.000000      7.420721      7.420721     14.841443
     -9.971388      7.186294      7.186294     14.372588
     -9.942775      6.895597      6.895597     13.791194
     -9.914163      6.483082      6.483082     12.966164
     -9.885551      6.058347      6.058347     12.116693
     -9.856938      5.859838      5.859838     11.719677
     -9.828326      6.057823      6.057823     12.115646
     -9.799714      6.593943      6.593943     13.187885
     -9.771102      7.209078      7.209078     14.418156
     -9.742489      7.627655      7.627655     15.255310
     -9.713877      7.729981      7.729981     15.459963
     -9.685265      7.579613      7.579613     15.159225
     -9.656652      7.315175      7.315175     14.630350
     -9.628040      7.018413      7.018413     14.036827
     -9.599428      6.661783      6.661783     13.323565
     -9.570815      6.160025      6.160025     12.320049
     -9.542203      5.479632      5.479632     10.959265
     -9.513591      4.734689      4.734689      9.469379
     -9.484979      4.201426      4.201426      8.402853
     -9.456366      4.210057      4.210057      8.420113
     -9.427754      4.943442      4.943442      9.886884
     -9.399142      6.268176      6.268176     12.536351
     -9.370529      7.750674      7.750674     15.501348
     -9.341917      8.897886      8.897886     17.795771
     -9.313305      9.472071      9.472071     18.944142
     -9.284692      9.632265      9.632265     19.264530
     -9.256080      9.770007      9.770007     19.540013
     -9.227468     10.161267     10.161267     20.322534
     -9.198856     10.725140     10.725140     21.450280
     -9.170243     11.091294     11.091294     22.182588
     -9.141631     10.901335     10.901335     21.802670
     -9.113019     10.072365     10.072365     20.144729
     -9.084406      8.827366      8.827366     17.654733
     -9.055794      7.541802      7.541802     15.083604
     -9.027182      6.587938      6.587938     13.175876
     -8.998569      6.260103      6.260103     12.520205
     -8.969957      6.708284      6.708284     13.416567
     -8.941345      7.820437      7.820437     15.640874
     -8.912732      9.162911      9.162911     18.325822
     -8.884120     10.161399     10.161399     20.322798
     -8.855508     10.499951     10.499951     20.999903
     -8.826896     10.410825     10.410825     20.821650
     -8.798283     10.518388     10.518388     21.036777
     -8.769671     11.294183     11.294183     22.588366
     -8.741059     12.594562     12.594562     25.189124
     -8.712446     13.729714     13.729714     27.459429
     -8.683834     14.032387     14.032387     28.064775
     -8.655222     13.407522     13.407522     26.815045
     -8.626609     12.351295     12.351295     24.702590
     -8.597997     11.458918     11.458918     22.917836
     -8.569385     10.946657     10.946657     21.893314
     -8.540773     10.642604     10.642604     21.285208
     -8.512160     10.352432     10.352432     20.704863
     -8.483548     10.119328     10.119328     20.238656
     -8.454936     10.094614     10.094614     20.189227
     -8.426323     10.244962     10.244962     20.489925
     -8.397711     10.311806     10.311806     20.623613
     -8.369099     10.087489     10.087489     20.174977
     -8.340486      9.655233      9.655233     19.310467
     -8.311874      9.301095      9.301095     18.602189
     -8.283262      9.231487      9.231487     18.462974
     -8.254649      9.440640      9.440640     18.881280
     -8.226037      9.831122      9.831122     19.662243
     -8.197425     10.360241     10.360241     20.720481
     -8.168813     10.993586     10.993586     21.987173
     -8.140200     11.558384     11.558384     23.116769
     -8.111588     11.780699     11.780699     23.561397
     -8.082976     11.581022     11.581022     23.162044
     -8.054363     11.322643     11.322643     22.645285
     -8.025751     11.641913     11.641913     23.283827
     -7.997139     12.886823     12.886823     25.773647
     -7.968526     14.657825     14.657825     29.315650
     -7.939914     15.959008     15.959008     31.918016
     -7.911302     15.931700     15.931700     31.863400
     -7.882690     14.549177     14.549177     29.098355
     -7.854077     12.632614     12.632614     25.265227
     -7.825465     11.173804     11.173804     22.347607
     -7.796853     10.585121     10.585121     21.170242
     -7.768240     10.504465     10.504465     21.008930
     -7.739628     10.225375     10.225375     20.450750
     -7.711016      9.308173      9.308173     18.616345
     -7.682403      7.893466      7.893466     15.786932
     -7.653791      6.573171      6.573171     13.146341
     -7.625179      5.994264      5.994264     11.988528
     -7.596567      6.472475      6.472475     12.944950
     -7.567954      7.832322      7.832322     15.664644
     -7.539342      9.554034      9.554034     19.108068
     -7.510730     11.120876     11.120876     22.241753
     -7.482117     12.311393     12.311393     24.622787
     -7.453505     13.227008     13.227008     26.454017
     -7.424893     14.080468     14.080468     28.160935
     -7.396280     14.961448     14.961448     29.922895
     -7.367668     15.760430     15.760430     31.520860
     -7.339056     16.253126     16.253126     32.506252
     -7.310443     16.230046     16.230046     32.460093
     -7.281831     15.583400     15.583400     31.166801
     -7.253219     14.347544     14.347544     28.695088
     -7.224607     12.710397     12.710397     25.420795
     -7.195994     10.979909     10.979909     21.959818
     -7.167382      9.495228      9.495228     18.990456
     -7.138770      8.521303      8.521303     17.042606
     -7.110157      8.178836      8.178836     16.357671
     -7.081545      8.430469      8.430469     16.860939
     -7.052933      9.127005      9.127005     18.254010
     -7.024320     10.110618     10.110618     20.221236
     -6.995708     11.324976     11.324976     22.649952
     -6.967096     12.829082     12.829082     25.658164
     -6.938484     14.665818     14.665818     29.331636
     -6.909871     16.702198     16.702198     33.404396
     -6.881259     18.645367     18.645367     37.290735
     -6.852647     20.278689     20.278689     40.557378
     -6.824034     21.683423     21.683423     43.366847
     -6.795422     23.156552     23.156552     46.313105
     -6.766810     24.847347     24.847347     49.694694
     -6.738197     26.499758     26.499758     52.999516
     -6.709585     27.634088     27.634088     55.268176
     -6.680973     28.012325     28.012325     56.024651
     -6.652361     27.880178     27.880178     55.760356
     -6.623748     27.737768     27.737768     55.475536
     -6.595136     27.942028     27.942028     55.884056
     -6.566524     28.571605     28.571605     57.143210
     -6.537911     29.581081     29.581081     59.162163
     -6.509299     30.936086     30.936086     61.872172
     -6.480687     32.562475     32.562475     65.124950
     -6.452074     34.275539     34.275539     68.551077
     -6.423462     35.895486     35.895486     71.790972
     -6.394850     37.472537     37.472537     74.945074
     -6.366237     39.341312     39.341312     78.682624
     -6.337625     41.882479     41.882479     83.764958
     -6.309013     45.200205     45.200205     90.400411
     -6.280401     49.022243     49.022243     98.044486
     -6.251788     52.880223     52.880223    105.760446
     -6.223176     56.336065     56.336065    112.672131
     -6.194564     59.027948     59.027948    118.055896
     -6.165951     60.581551     60.581551    121.163102
     -6.137339     60.624838     60.624838    121.249675
     -6.108727     59.024290     59.024290    118.048581
     -6.080114     56.159130     56.159130    112.318261
     -6.051502     52.913676     52.913676    105.827352
     -6.022890     50.282858     50.282858    100.565717
     -5.994278     48.855099     48.855099     97.710197
     -5.965665     48.571616     48.571616     97.143232
     -5.937053     48.906577     48.906577     97.813154
     -5.908441     49.236066     49.236066     98.472131
     -5.879828     49.076724     49.076724     98.153449
     -5.851216     48.146929     48.146929     96.293858
     -5.822604     46.444152     46.444152     92.888304
     -5.793991     44.384749     44.384749     88.769498
     -5.765379     42.731348     42.731348     85.462695
     -5.736767     42.095444     42.095444     84.190888
     -5.708155     42.323835     42.323835     84.647670
     -5.679542     42.408576     42.408576     84.817152
     -5.650930     41.166661     41.166661     82.333322
     -5.622318     38.176186     38.176186     76.352372
     -5.593705     34.165128     34.165128     68.330256
     -5.565093     30.530519     30.530519     61.061038
     -5.536481     28.413103     28.413103     56.826205
     -5.507868     28.065840     28.065840     56.131681
     -5.479256     28.918246     28.918246     57.836492
     -5.450644     30.130522     30.130522     60.261043
     -5.422031     31.100007     31.100007     62.200013
     -5.393419     31.561854     31.561854     63.123708
     -5.364807     31.395181     31.395181     62.790362
     -5.336195     30.538447     30.538447     61.076895
     -5.307582     29.224245     29.224245     58.448490
     -5.278970     28.268573     28.268573     56.537145
     -5.250358     28.956977     28.956977     57.913954
     -5.221745     32.411754     32.411754     64.823508
     -5.193133     38.827606     38.827606     77.655212
     -5.164521     47.128622     47.128622     94.257245
     -5.135908     55.335747     55.335747    110.671493
     -5.107296     61.479599     61.479599    122.959198
     -5.078684     64.522194     64.522194    129.044387
     -5.050072     64.692691     64.692691    129.385383
     -5.021459     63.021531     63.021531    126.043062
     -4.992847     60.472560     60.472560    120.945119
     -4.964235     57.387199     57.387199    114.774398
     -4.935622     53.616082     53.616082    107.232164
     -4.907010     49.052884     49.052884     98.105769
     -4.878398     43.992793     43.992793     87.985585
     -4.849785     39.048849     39.048849     78.097698
     -4.821173     34.837235     34.837235     69.674470
     -4.792561     31.774409     31.774409     63.548817
     -4.763948     30.083089     30.083089     60.166179
     -4.735336     29.840802     29.840802     59.681605
     -4.706724     30.907951     30.907951     61.815901
     -4.678112     32.787496     32.787496     65.574991
     -4.649499     34.635603     34.635603     69.271207
     -4.620887     35.570879     35.570879     71.141759
     -4.592275     35.166934     35.166934     70.333867
     -4.563662     33.812538     33.812538     67.625076
     -4.535050     32.676831     32.676831     65.353663
     -4.506438     33.232880     33.232880     66.465759
     -4.477825     36.495900     36.495900     72.991800
     -4.449213     42.329127     42.329127     84.658253
     -4.420601     49.312801     49.312801     98.625602
     -4.391989     55.433281     55.433281    110.866562
     -4.363376     59.170726     59.170726    118.341452
     -4.334764     60.134276     60.134276    120.268551
     -4.306152     58.846893     58.846893    117.693786
     -4.277539     56.129448     56.129448    112.258897
     -4.248927     52.732172     52.732172    105.464344
     -4.220315     49.302365     49.302365     98.604730
     -4.191702     46.343584     46.343584     92.687168
     -4.163090     44.025027     44.025027     88.050054
     -4.134478     42.087039     42.087039     84.174078
     -4.105866     40.080497     40.080497     80.160993
     -4.077253     37.822844     37.822844     75.645688
     -4.048641     35.677960     35.677960     71.355919
     -4.020029     34.347726     34.347726     68.695452
     -3.991416     34.273426     34.273426     68.546852
     -3.962804     35.163114     35.163114     70.326228
     -3.934192     36.130341     36.130341     72.260682
     -3.905579     36.369232     36.369232     72.738464
     -3.876967     35.756980     35.756980     71.513959
     -3.848355     34.848934     34.848934     69.697867
     -3.819742     34.303018     34.303018     68.606036
     -3.791130     34.248417     34.248417     68.496834
     -3.762518     34.126788     34.126788     68.253576
     -3.733906     33.142585     33.142585     66.285170
     -3.705293     30.960589     30.960589     61.921178
     -3.676681     28.066010     28.066010     56.132020
     -3.648069     25.482995     25.482995     50.965990
     -3.619456     24.104428     24.104428     48.208855
     -3.590844     24.192777     24.192777     48.385554
     -3.562232     25.407905     25.407905     50.815811
     -3.533619     27.244447     27.244447     54.488893
     -3.505007     29.438956     29.438956     58.877912
     -3.476395     31.987066     31.987066     63.974132
     -3.447783     34.835221     34.835221     69.670441
     -3.419170     37.671097     37.671097     75.342194
     -3.390558     40.090514     40.090514     80.181029
     -3.361946     41.908781     41.908781     83.817562
     -3.333333     43.187340     43.187340     86.374681
     -3.304721     43.940876     43.940876     87.881751
     -3.276109     43.925485     43.925485     87.850970
     -3.247496     42.809246     42.809246     85.618493
     -3.218884     40.565498     40.565498     81.130995
     -3.190272     37.677851     37.677851     75.355703
     -3.161660     34.929641     34.929641     69.859282
     -3.133047     32.929282     32.929282     65.858565
     -3.104435     31.752744     31.752744     63.505488
     -3.075823     31.000279     31.000279     62.000558
     -3.047210     30.242578     30.242578     60.485156
     -3.018598     29.503029     29.503029     59.006058
     -2.989986     29.343107     29.343107     58.686215
     -2.961373     30.413970     30.413970     60.827940
     -2.932761     32.822562     32.822562     65.645124
     -2.904149     35.874296     35.874296     71.748592
     -2.875536     38.434188     38.434188     76.868376
     -2.846924     39.606789     39.606789     79.213578
     -2.818312     39.211641     39.211641     78.423282
     -2.789700     37.761349     37.761349     75.522699
     -2.761087     36.030706     36.030706     72.061411
     -2.732475     34.545110     34.545110     69.090220
     -2.703863     33.333334     33.333334     66.666669
     -2.675250     32.094611     32.094611     64.189222
     -2.646638     30.613630     30.613630     61.227260
     -2.618026     29.051184     29.051184     58.102368
     -2.589413     27.845893     27.845893     55.691786
     -2.560801     27.307891     27.307891     54.615781
     -2.532189     27.265658     27.265658     54.531316
     -2.503577     27.107407     27.107407     54.214814
     -2.474964     26.249126     26.249126     52.498251
     -2.446352     24.684951     24.684951     49.369902
     -2.417740     23.141183     23.141183     46.282365
     -2.389127     22.641421     22.641421     45.282843
     -2.360515     23.808646     23.808646     47.617293
     -2.331903     26.494465     26.494465     52.988930
     -2.303290     30.026286     30.026286     60.052572
     -2.274678     33.771372     33.771372     67.542744
     -2.246066     37.454585     37.454585     74.909170
     -2.217454     40.996604     40.996604     81.993208
     -2.188841     44.156198     44.156198     88.312395
     -2.160229     46.407823     46.407823     92.815645
     -2.131617     47.186704     47.186704     94.373408
     -2.103004     46.257226     46.257226     92.514452
     -2.074392     43.866318     43.866318     87.732636
     -2.045780     40.580577     40.580577     81.161153
     -2.017167     37.009693     37.009693     74.019385
     -1.988555     33.664279     33.664279     67.328557
     -1.959943     30.966188     30.966188     61.932376
     -1.931330     29.248806     29.248806     58.497612
     -1.902718     28.679646     28.679646     57.359293
     -1.874106     29.224654     29.224654     58.449308
     -1.845494     30.743156     30.743156     61.486312
     -1.816881     33.082161     33.082161     66.164323
     -1.788269     35.974435     35.974435     71.948870
     -1.759657     38.801429     38.801429     77.602858
     -1.731044     40.554866     40.554866     81.109732
     -1.702432     40.221910     40.221910     80.443820
     -1.673820     37.389603     37.389603     74.779207
     -1.645207     32.580884     32.580884     65.161768
     -1.616595     27.009648     27.009648     54.019296
     -1.587983     21.917188     21.917188     43.834376
     -1.559371     17.994788     17.994788     35.989576
     -1.530758     15.290840     15.290840     30.581680
     -1.502146     13.534987     13.534987     27.069973
     -1.473534     12.461469     12.461469     24.922937
     -1.444921     11.854563     11.854563     23.709127
     -1.416309     11.453439     11.453439     22.906877
     -1.387697     10.991685     10.991685     21.983370
     -1.359084     10.380997     10.380997     20.761995
     -1.330472      9.807133      9.807133     19.614267
     -1.301860      9.604471      9.604471     19.208941
     -1.273247     10.017142     10.017142     20.034283
     -1.244635     11.026490     11.026490     22.052979
     -1.216023     12.327029     12.327029     24.654057
     -1.187411     13.438481     13.438481     26.876962
     -1.158798     13.896079     13.896079     27.792158
     -1.130186     13.426653     13.426653     26.853305
     -1.101574     12.024634     12.024634     24.049268
     -1.072961      9.918143      9.918143     19.836286
     -1.044349      7.481475      7.481475     14.962951
     -1.015737      5.136862      5.136862     10.273724
     -0.987124      3.252852      3.252852      6.505703
     -0.958512      2.056679      2.056679      4.113358
     -0.929900      1.593366      1.593366      3.186732
     -0.901288      1.737798      1.737798      3.475596
     -0.872675      2.241474      2.241474      4.482948
     -0.844063      2.811322      2.811322      5.622645
     -0.815451      3.220627      3.220627      6.441253
     -0.786838      3.402359      3.402359      6.804719
     -0.758226      3.446358      3.446358      6.892715
     -0.729614      3.488294      3.488294      6.976588
     -0.701001      3.578823      3.578823      7.157646
     -0.672389      3.640380      3.640380      7.280760
     -0.643777      3.542759      3.542759      7.085517
     -0.615165      3.231500      3.231500      6.463000
     -0.586552      2.797425      2.797425      5.594850
     -0.557940      2.421174      2.421174      4.842347
     -0.529328      2.238902      2.238902      4.477805
     -0.500715      2.247817      2.247817      4.495634
     -0.472103      2.323156      2.323156      4.646313
     -0.443491      2.311727      2.311727      4.623454
     -0.414878      2.120214      2.120214      4.240427
     -0.386266      1.751209      1.751209      3.502417
     -0.357654      1.287558      1.287558      2.575117
     -0.329041      0.845894      0.845894      1.691788
     -0.300429      0.526908      0.526908      1.053815
