# EIG2DOS: Utility for SIESTA to obtain the electronic density of states
#  E. Artacho, Apr 1999, A. Garcia, Apr 2012
# ------------------------------------------
# Eigenvalues read from 3mos2-2graphene.EIG
# Using smearing parameter:   0.100
# Using    700 points in energy range
# Selected bands: 1 to: 3268
# Emin, emax in file for selected band(s):    -23.0379000    153.0998700
# Nbands, Nspin, Nk   =   3268     1    13
# E_F                 =    -4.8373 eV --> (shifted to ZERO)
# Broadening          =     0.1000 eV
#
#        E            N(up)  (=)   N(down)         Ntot
    -10.000000      4.935998      4.935998      9.871997
     -9.971388      3.848858      3.848858      7.697717
     -9.942775      3.507691      3.507691      7.015383
     -9.914163      3.822261      3.822261      7.644521
     -9.885551      4.598779      4.598779      9.197557
     -9.856938      5.692327      5.692327     11.384654
     -9.828326      7.023948      7.023948     14.047897
     -9.799714      8.473280      8.473280     16.946560
     -9.771102      9.784587      9.784587     19.569174
     -9.742489     10.601390     10.601390     21.202780
     -9.713877     10.613432     10.613432     21.226865
     -9.685265      9.709334      9.709334     19.418668
     -9.656652      8.042877      8.042877     16.085755
     -9.628040      5.982507      5.982507     11.965015
     -9.599428      3.970193      3.970193      7.940386
     -9.570815      2.364804      2.364804      4.729608
     -9.542203      1.364353      1.364353      2.728706
     -9.513591      1.051244      1.051244      2.102487
     -9.484979      1.505412      1.505412      3.010824
     -9.456366      2.862669      2.862669      5.725338
     -9.427754      5.222926      5.222926     10.445852
     -9.399142      8.434961      8.434961     16.869921
     -9.370529     11.927749     11.927749     23.855499
     -9.341917     14.792001     14.792001     29.584002
     -9.313305     16.154565     16.154565     32.309130
     -9.284692     15.634110     15.634110     31.268220
     -9.256080     13.558424     13.558424     27.116849
     -9.227468     10.785223     10.785223     21.570445
     -9.198856      8.258562      8.258562     16.517124
     -9.170243      6.598033      6.598033     13.196066
     -9.141631      5.939980      5.939980     11.879959
     -9.113019      6.032647      6.032647     12.065293
     -9.084406      6.441166      6.441166     12.882331
     -9.055794      6.751510      6.751510     13.503020
     -9.027182      6.759885      6.759885     13.519770
     -8.998569      6.615377      6.615377     13.230753
     -8.969957      6.784854      6.784854     13.569709
     -8.941345      7.751133      7.751133     15.502266
     -8.912732      9.596545      9.596545     19.193091
     -8.884120     11.818152     11.818152     23.636304
     -8.855508     13.600224     13.600224     27.200447
     -8.826896     14.379561     14.379561     28.759123
     -8.798283     14.237794     14.237794     28.475588
     -8.769671     13.770018     13.770018     27.540037
     -8.741059     13.542548     13.542548     27.085097
     -8.712446     13.626530     13.626530     27.253059
     -8.683834     13.612945     13.612945     27.225891
     -8.655222     13.054214     13.054214     26.108427
     -8.626609     11.883425     11.883425     23.766851
     -8.597997     10.428845     10.428845     20.857689
     -8.569385      9.096815      9.096815     18.193631
     -8.540773      8.124359      8.124359     16.248719
     -8.512160      7.627387      7.627387     15.254774
     -8.483548      7.748385      7.748385     15.496769
     -8.454936      8.601464      8.601464     17.202927
     -8.426323     10.038355     10.038355     20.076710
     -8.397711     11.553433     11.553433     23.106865
     -8.369099     12.512596     12.512596     25.025192
     -8.340486     12.515248     12.515248     25.030496
     -8.311874     11.569747     11.569747     23.139494
     -8.283262     10.012522     10.012522     20.025043
     -8.254649      8.358368      8.358368     16.716737
     -8.226037      7.210917      7.210917     14.421834
     -8.197425      7.145638      7.145638     14.291276
     -8.168813      8.456386      8.456386     16.912773
     -8.140200     10.874010     10.874010     21.748020
     -8.111588     13.543338     13.543338     27.086676
     -8.082976     15.435160     15.435160     30.870321
     -8.054363     16.000445     16.000445     32.000890
     -8.025751     15.559002     15.559002     31.118004
     -7.997139     15.024686     15.024686     30.049372
     -7.968526     15.120887     15.120887     30.241774
     -7.939914     15.742819     15.742819     31.485638
     -7.911302     16.035899     16.035899     32.071798
     -7.882690     15.118368     15.118368     30.236736
     -7.854077     12.808105     12.808105     25.616211
     -7.825465      9.765785      9.765785     19.531571
     -7.796853      7.024634      7.024634     14.049268
     -7.768240      5.349773      5.349773     10.699545
     -7.739628      4.878498      4.878498      9.756995
     -7.711016      5.191797      5.191797     10.383593
     -7.682403      5.693237      5.693237     11.386473
     -7.653791      6.042216      6.042216     12.084432
     -7.625179      6.372266      6.372266     12.744531
     -7.596567      7.147200      7.147200     14.294399
     -7.567954      8.763869      8.763869     17.527738
     -7.539342     11.213036     11.213036     22.426073
     -7.510730     14.050194     14.050194     28.100388
     -7.482117     16.652616     16.652616     33.305233
     -7.453505     18.523783     18.523783     37.047566
     -7.424893     19.439844     19.439844     38.879688
     -7.396280     19.418777     19.418777     38.837555
     -7.367668     18.612862     18.612862     37.225723
     -7.339056     17.209772     17.209772     34.419544
     -7.310443     15.370450     15.370450     30.740900
     -7.281831     13.209600     13.209600     26.419199
     -7.253219     10.824774     10.824774     21.649549
     -7.224607      8.364965      8.364965     16.729930
     -7.195994      6.094765      6.094765     12.189530
     -7.167382      4.394801      4.394801      8.789602
     -7.138770      3.674952      3.674952      7.349903
     -7.110157      4.228508      4.228508      8.457015
     -7.081545      6.078433      6.078433     12.156865
     -7.052933      8.888738      8.888738     17.777475
     -7.024320     12.040931     12.040931     24.081862
     -6.995708     14.904373     14.904373     29.808745
     -6.967096     17.133558     17.133558     34.267116
     -6.938484     18.730881     18.730881     37.461761
     -6.909871     19.828260     19.828260     39.656519
     -6.881259     20.460271     20.460271     40.920543
     -6.852647     20.597816     20.597816     41.195632
     -6.824034     20.354595     20.354595     40.709189
     -6.795422     20.039323     20.039323     40.078647
     -6.766810     19.931447     19.931447     39.862893
     -6.738197     20.030289     20.030289     40.060579
     -6.709585     20.081089     20.081089     40.162178
     -6.680973     19.867008     19.867008     39.734016
     -6.652361     19.474342     19.474342     38.948683
     -6.623748     19.300737     19.300737     38.601473
     -6.595136     19.857841     19.857841     39.715682
     -6.566524     21.572156     21.572156     43.144313
     -6.537911     24.688804     24.688804     49.377609
     -6.509299     29.228773     29.228773     58.457547
     -6.480687     34.933798     34.933798     69.867596
     -6.452074     41.230027     41.230027     82.460054
     -6.423462     47.316347     47.316347     94.632695
     -6.394850     52.427367     52.427367    104.854735
     -6.366237     56.144551     56.144551    112.289103
     -6.337625     58.526288     58.526288    117.052575
     -6.309013     59.985298     59.985298    119.970595
     -6.280401     61.106697     61.106697    122.213394
     -6.251788     62.602977     62.602977    125.205954
     -6.223176     65.310850     65.310850    130.621701
     -6.194564     69.983596     69.983596    139.967192
     -6.165951     76.907317     76.907317    153.814634
     -6.137339     85.716523     85.716523    171.433046
     -6.108727     95.652524     95.652524    191.305048
     -6.080114    105.976548    105.976548    211.953095
     -6.051502    116.025138    116.025138    232.050275
     -6.022890    124.866167    124.866167    249.732334
     -5.994278    131.135945    131.135945    262.271890
     -5.965665    133.573914    133.573914    267.147828
     -5.937053    131.981863    131.981863    263.963726
     -5.908441    127.693057    127.693057    255.386115
     -5.879828    122.928528    122.928528    245.857057
     -5.851216    119.423677    119.423677    238.847353
     -5.822604    117.416541    117.416541    234.833081
     -5.793991    115.785146    115.785146    231.570292
     -5.765379    113.115649    113.115649    226.231299
     -5.736767    108.736818    108.736818    217.473635
     -5.708155    102.925681    102.925681    205.851362
     -5.679542     96.334346     96.334346    192.668692
     -5.650930     89.353716     89.353716    178.707432
     -5.622318     82.028698     82.028698    164.057397
     -5.593705     74.494031     74.494031    148.988063
     -5.565093     67.387554     67.387554    134.775109
     -5.536481     61.752312     61.752312    123.504625
     -5.507868     58.440948     58.440948    116.881895
     -5.479256     57.497360     57.497360    114.994721
     -5.450644     58.009419     58.009419    116.018838
     -5.422031     58.539156     58.539156    117.078312
     -5.393419     57.823223     57.823223    115.646445
     -5.364807     55.316192     55.316192    110.632384
     -5.336195     51.328505     51.328505    102.657010
     -5.307582     46.769704     46.769704     93.539408
     -5.278970     42.675675     42.675675     85.351351
     -5.250358     39.775053     39.775053     79.550106
     -5.221745     38.324579     38.324579     76.649158
     -5.193133     38.239668     38.239668     76.479337
     -5.164521     39.301467     39.301467     78.602934
     -5.135908     41.243683     41.243683     82.487367
     -5.107296     43.771126     43.771126     87.542251
     -5.078684     46.649880     46.649880     93.299760
     -5.050072     49.852139     49.852139     99.704279
     -5.021459     53.639315     53.639315    107.278629
     -4.992847     58.530549     58.530549    117.061099
     -4.964235     65.158912     65.158912    130.317823
     -4.935622     74.041832     74.041832    148.083663
     -4.907010     85.371133     85.371133    170.742266
     -4.878398     98.941209     98.941209    197.882417
     -4.849785    114.160674    114.160674    228.321349
     -4.821173    129.953950    129.953950    259.907900
     -4.792561    144.547409    144.547409    289.094819
     -4.763948    155.495975    155.495975    310.991951
     -4.735336    160.311478    160.311478    320.622956
     -4.706724    157.502886    157.502886    315.005772
     -4.678112    147.306306    147.306306    294.612611
     -4.649499    131.584103    131.584103    263.168205
     -4.620887    113.098974    113.098974    226.197947
     -4.592275     94.710760     94.710760    189.421520
     -4.563662     78.757281     78.757281    157.514562
     -4.535050     66.633015     66.633015    133.266030
     -4.506438     58.680339     58.680339    117.360677
     -4.477825     54.477745     54.477745    108.955489
     -4.449213     53.266343     53.266343    106.532686
     -4.420601     54.146943     54.146943    108.293885
     -4.391989     56.076022     56.076022    112.152045
     -4.363376     58.037736     58.037736    116.075471
     -4.334764     59.543693     59.543693    119.087386
     -4.306152     61.096637     61.096637    122.193273
     -4.277539     64.113656     64.113656    128.227313
     -4.248927     70.227715     70.227715    140.455429
     -4.220315     80.418179     80.418179    160.836358
     -4.191702     94.494676     94.494676    188.989353
     -4.163090    111.034319    111.034319    222.068638
     -4.134478    127.549619    127.549619    255.099237
     -4.105866    140.888939    140.888939    281.777878
     -4.077253    148.145927    148.145927    296.291855
     -4.048641    147.929227    147.929227    295.858454
     -4.020029    141.105536    141.105536    282.211072
     -3.991416    130.255882    130.255882    260.511765
     -3.962804    118.206768    118.206768    236.413536
     -3.934192    106.815295    106.815295    213.630591
     -3.905579     96.759262     96.759262    193.518524
     -3.876967     88.061644     88.061644    176.123289
     -3.848355     80.657730     80.657730    161.315460
     -3.819742     74.646198     74.646198    149.292396
     -3.791130     70.239108     70.239108    140.478215
     -3.762518     67.525561     67.525561    135.051122
     -3.733906     66.247116     66.247116    132.494232
     -3.705293     65.844004     65.844004    131.688008
     -3.676681     65.785585     65.785585    131.571169
     -3.648069     65.834118     65.834118    131.668237
     -3.619456     65.946574     65.946574    131.893147
     -3.590844     65.981881     65.981881    131.963762
     -3.562232     65.620146     65.620146    131.240293
     -3.533619     64.599379     64.599379    129.198759
     -3.505007     62.967571     62.967571    125.935143
     -3.476395     61.053550     61.053550    122.107100
     -3.447783     59.209247     59.209247    118.418493
     -3.419170     57.615285     57.615285    115.230571
     -3.390558     56.330443     56.330443    112.660886
     -3.361946     55.474051     55.474051    110.948101
     -3.333333     55.296610     55.296610    110.593219
     -3.304721     56.054150     56.054150    112.108301
     -3.276109     57.832459     57.832459    115.664918
     -3.247496     60.487732     60.487732    120.975464
     -3.218884     63.722684     63.722684    127.445369
     -3.190272     67.213523     67.213523    134.427046
     -3.161660     70.684255     70.684255    141.368509
     -3.133047     73.861907     73.861907    147.723815
     -3.104435     76.383907     76.383907    152.767814
     -3.075823     77.851689     77.851689    155.703378
     -3.047210     78.082814     78.082814    156.165628
     -3.018598     77.313568     77.313568    154.627136
     -2.989986     76.100645     76.100645    152.201291
     -2.961373     75.047893     75.047893    150.095786
     -2.932761     74.711545     74.711545    149.423089
     -2.904149     75.731503     75.731503    151.463006
     -2.875536     78.804243     78.804243    157.608486
     -2.846924     84.233092     84.233092    168.466185
     -2.818312     91.397764     91.397764    182.795528
     -2.789700     98.766241     98.766241    197.532483
     -2.761087    104.594537    104.594537    209.189074
     -2.732475    107.779811    107.779811    215.559621
     -2.703863    108.208495    108.208495    216.416990
     -2.675250    106.407637    106.407637    212.815275
     -2.646638    102.863509    102.863509    205.727019
     -2.618026     97.618919     97.618919    195.237838
     -2.589413     90.538285     90.538285    181.076570
     -2.560801     82.014190     82.014190    164.028380
     -2.532189     73.375291     73.375291    146.750581
     -2.503577     66.445140     66.445140    132.890281
     -2.474964     62.516164     62.516164    125.032329
     -2.446352     61.608435     61.608435    123.216871
     -2.417740     62.641608     62.641608    125.283216
     -2.389127     64.334013     64.334013    128.668027
     -2.360515     66.049275     66.049275    132.098549
     -2.331903     67.924032     67.924032    135.848064
     -2.303290     70.273563     70.273563    140.547127
     -2.274678     72.900679     72.900679    145.801357
     -2.246066     74.972114     74.972114    149.944227
     -2.217454     75.541007     75.541007    151.082013
     -2.188841     74.173770     74.173770    148.347540
     -2.160229     71.114046     71.114046    142.228091
     -2.131617     66.959448     66.959448    133.918895
     -2.103004     62.313987     62.313987    124.627973
     -2.074392     57.802129     57.802129    115.604258
     -2.045780     54.324910     54.324910    108.649820
     -2.017167     53.104541     53.104541    106.209081
     -1.988555     55.288209     55.288209    110.576418
     -1.959943     61.377784     61.377784    122.755568
     -1.931330     70.911535     70.911535    141.823070
     -1.902718     82.509371     82.509371    165.018741
     -1.874106     94.105572     94.105572    188.211145
     -1.845494    103.323663    103.323663    206.647326
     -1.816881    108.158565    108.158565    216.317129
     -1.788269    107.862143    107.862143    215.724287
     -1.759657    103.400383    103.400383    206.800765
     -1.731044     96.925576     96.925576    193.851151
     -1.702432     90.560494     90.560494    181.120988
     -1.673820     85.449280     85.449280    170.898561
     -1.645207     81.682281     81.682281    163.364562
     -1.616595     78.824751     78.824751    157.649501
     -1.587983     76.396087     76.396087    152.792173
     -1.559371     73.996753     73.996753    147.993507
     -1.530758     71.257016     71.257016    142.514032
     -1.502146     67.859069     67.859069    135.718138
     -1.473534     63.651184     63.651184    127.302368
     -1.444921     58.725650     58.725650    117.451301
     -1.416309     53.415276     53.415276    106.830552
     -1.387697     48.250990     48.250990     96.501980
     -1.359084     43.848715     43.848715     87.697431
     -1.330472     40.646462     40.646462     81.292924
     -1.301860     38.590755     38.590755     77.181509
     -1.273247     37.065879     37.065879     74.131757
     -1.244635     35.227348     35.227348     70.454696
     -1.216023     32.521908     32.521908     65.043816
     -1.187411     28.984902     28.984902     57.969804
     -1.158798     25.111797     25.111797     50.223593
     -1.130186     21.465922     21.465922     42.931845
     -1.101574     18.364119     18.364119     36.728237
     -1.072961     15.852592     15.852592     31.705184
     -1.044349     13.885414     13.885414     27.770827
     -1.015737     12.444095     12.444095     24.888190
     -0.987124     11.477386     11.477386     22.954773
     -0.958512     10.807945     10.807945     21.615889
     -0.929900     10.188497     10.188497     20.376994
     -0.901288      9.472207      9.472207     18.944414
     -0.872675      8.711341      8.711341     17.422682
     -0.844063      8.086418      8.086418     16.172836
     -0.815451      7.734094      7.734094     15.468187
     -0.786838      7.606125      7.606125     15.212250
     -0.758226      7.458032      7.458032     14.916065
     -0.729614      6.989579      6.989579     13.979159
     -0.701001      6.053881      6.053881     12.107762
     -0.672389      4.779773      4.779773      9.559546
     -0.643777      3.508294      3.508294      7.016588
     -0.615165      2.594486      2.594486      5.188972
     -0.586552      2.215990      2.215990      4.431980
     -0.557940      2.293961      2.293961      4.587922
     -0.529328      2.550320      2.550320      5.100641
     -0.500715      2.665966      2.665966      5.331932
     -0.472103      2.455609      2.455609      4.911219
     -0.443491      1.950959      1.950959      3.901919
     -0.414878      1.342131      1.342131      2.684261
     -0.386266      0.840403      0.840403      1.680806
     -0.357654      0.574141      0.574141      1.148282
     -0.329041      0.566145      0.566145      1.132290
     -0.300429      0.757062      0.757062      1.514124
