# EIG2DOS: Utility for SIESTA to obtain the electronic density of states
#  E. Artacho, Apr 1999, A. Garcia, Apr 2012
# ------------------------------------------
# Eigenvalues read from 3mos2-2graphene.EIG
# Using smearing parameter:   0.100
# Using    700 points in energy range
# Selected bands: 1 to: 3268
# Emin, emax in file for selected band(s):    -23.1494300    153.0034600
# Nbands, Nspin, Nk   =   3268     1    13
# E_F                 =    -4.9389 eV --> (shifted to ZERO)
# Broadening          =     0.1000 eV
#
#        E            N(up)  (=)   N(down)         Ntot
    -10.000000      5.308877      5.308877     10.617754
     -9.971388      4.315023      4.315023      8.630045
     -9.942775      3.908027      3.908027      7.816053
     -9.914163      4.101962      4.101962      8.203924
     -9.885551      4.799532      4.799532      9.599064
     -9.856938      5.856176      5.856176     11.712353
     -9.828326      7.111925      7.111925     14.223851
     -9.799714      8.385303      8.385303     16.770606
     -9.771102      9.456003      9.456003     18.912006
     -9.742489     10.075024     10.075024     20.150048
     -9.713877     10.028992     10.028992     20.057985
     -9.685265      9.237432      9.237432     18.474865
     -9.656652      7.813112      7.813112     15.626224
     -9.628040      6.032915      6.032915     12.065830
     -9.599428      4.240235      4.240235      8.480471
     -9.570815      2.746396      2.746396      5.492792
     -9.542203      1.782385      1.782385      3.564769
     -9.513591      1.508603      1.508603      3.017206
     -9.484979      2.047788      2.047788      4.095577
     -9.456366      3.480279      3.480279      6.960559
     -9.427754      5.765515      5.765515     11.531031
     -9.399142      8.633398      8.633398     17.266795
     -9.370529     11.552153     11.552153     23.104305
     -9.341917     13.849152     13.849152     27.698305
     -9.313305     14.953910     14.953910     29.907821
     -9.284692     14.638433     14.638433     29.276866
     -9.256080     13.118954     13.118954     26.237908
     -9.227468     10.959143     10.959143     21.918286
     -9.198856      8.828477      8.828477     17.656954
     -9.170243      7.243910      7.243910     14.487819
     -9.141631      6.411822      6.411822     12.823644
     -9.113019      6.219839      6.219839     12.439678
     -9.084406      6.363034      6.363034     12.726069
     -9.055794      6.543131      6.543131     13.086262
     -9.027182      6.646528      6.646528     13.293057
     -8.998569      6.805480      6.805480     13.610959
     -8.969957      7.297498      7.297498     14.594996
     -8.941345      8.330751      8.330751     16.661503
     -8.912732      9.852972      9.852972     19.705944
     -8.884120     11.530893     11.530893     23.061786
     -8.855508     12.929861     12.929861     25.859723
     -8.826896     13.763325     13.763325     27.526651
     -8.798283     14.030527     14.030527     28.061054
     -8.769671     13.954340     13.954340     27.908679
     -8.741059     13.778800     13.778800     27.557600
     -8.712446     13.585427     13.585427     27.170853
     -8.683834     13.267003     13.267003     26.534005
     -8.655222     12.659125     12.659125     25.318251
     -8.626609     11.701284     11.701284     23.402568
     -8.597997     10.505758     10.505758     21.011515
     -8.569385      9.315647      9.315647     18.631295
     -8.540773      8.409333      8.409333     16.818665
     -8.512160      8.009999      8.009999     16.019998
     -8.483548      8.221768      8.221768     16.443536
     -8.454936      8.990066      8.990066     17.980132
     -8.426323     10.093106     10.093106     20.186212
     -8.397711     11.183457     11.183457     22.366915
     -8.369099     11.882957     11.882957     23.765914
     -8.340486     11.909562     11.909562     23.819124
     -8.311874     11.199505     11.199505     22.399009
     -8.283262      9.971880      9.971880     19.943760
     -8.254649      8.685800      8.685800     17.371600
     -8.226037      7.888651      7.888651     15.777302
     -8.197425      8.006786      8.006786     16.013571
     -8.168813      9.150866      9.150866     18.301732
     -8.140200     11.025808     11.025808     22.051616
     -8.111588     13.035172     13.035172     26.070344
     -8.082976     14.575496     14.575496     29.150992
     -8.054363     15.356587     15.356587     30.713174
     -8.025751     15.520824     15.520824     31.041649
     -7.997139     15.463682     15.463682     30.927364
     -7.968526     15.485104     15.485104     30.970208
     -7.939914     15.535527     15.535527     31.071053
     -7.911302     15.246553     15.246553     30.493106
     -7.882690     14.218295     14.218295     28.436590
     -7.854077     12.350635     12.350635     24.701269
     -7.825465      9.980041      9.980041     19.960082
     -7.796853      7.720031      7.720031     15.440063
     -7.768240      6.115682      6.115682     12.231363
     -7.739628      5.363358      5.363358     10.726716
     -7.711016      5.290106      5.290106     10.580212
     -7.682403      5.573885      5.573885     11.147771
     -7.653791      6.011561      6.011561     12.023122
     -7.625179      6.643587      6.643587     13.287175
     -7.596567      7.677865      7.677865     15.355730
     -7.567954      9.292939      9.292939     18.585879
     -7.539342     11.461527     11.461527     22.923054
     -7.510730     13.904070     13.904070     27.808140
     -7.482117     16.190429     16.190429     32.380858
     -7.453505     17.916258     17.916258     35.832516
     -7.424893     18.842705     18.842705     37.685411
     -7.396280     18.926523     18.926523     37.853046
     -7.367668     18.255840     18.255840     36.511680
     -7.339056     16.966625     16.966625     33.933250
     -7.310443     15.196355     15.196355     30.392709
     -7.281831     13.080086     13.080086     26.160173
     -7.253219     10.771098     10.771098     21.542196
     -7.224607      8.468920      8.468920     16.937840
     -7.195994      6.438093      6.438093     12.876186
     -7.167382      4.998185      4.998185      9.996371
     -7.138770      4.463520      4.463520      8.927040
     -7.110157      5.030093      5.030093     10.060186
     -7.081545      6.660918      6.660918     13.321837
     -7.052933      9.059020      9.059020     18.118040
     -7.024320     11.770932     11.770932     23.541865
     -6.995708     14.360159     14.360159     28.720317
     -6.967096     16.538097     16.538097     33.076194
     -6.938484     18.189141     18.189141     36.378282
     -6.909871     19.314898     19.314898     38.629796
     -6.881259     19.969503     19.969503     39.939007
     -6.852647     20.239039     20.239039     40.478079
     -6.824034     20.252714     20.252714     40.505428
     -6.795422     20.161681     20.161681     40.323362
     -6.766810     20.057546     20.057546     40.115092
     -6.738197     19.902391     19.902391     39.804782
     -6.709585     19.562781     19.562781     39.125562
     -6.680973     18.929141     18.929141     37.858283
     -6.652361     18.013371     18.013371     36.026742
     -6.623748     16.971768     16.971768     33.943535
     -6.595136     16.088207     16.088207     32.176414
     -6.566524     15.744566     15.744566     31.489132
     -6.537911     16.354258     16.354258     32.708516
     -6.509299     18.236070     18.236070     36.472140
     -6.480687     21.457850     21.457850     42.915700
     -6.452074     25.737578     25.737578     51.475156
     -6.423462     30.494372     30.494372     60.988743
     -6.394850     35.048104     35.048104     70.096207
     -6.366237     38.852681     38.852681     77.705362
     -6.337625     41.660586     41.660586     83.321171
     -6.309013     43.613813     43.613813     87.227626
     -6.280401     45.247776     45.247776     90.495552
     -6.251788     47.313088     47.313088     94.626176
     -6.223176     50.423192     50.423192    100.846384
     -6.194564     54.789263     54.789263    109.578527
     -6.165951     60.291039     60.291039    120.582078
     -6.137339     66.742381     66.742381    133.484763
     -6.108727     73.966240     73.966240    147.932481
     -6.080114     81.596144     81.596144    163.192287
     -6.051502     88.963425     88.963425    177.926851
     -6.022890     95.360163     95.360163    190.720327
     -5.994278    100.465246    100.465246    200.930492
     -5.965665    104.469032    104.469032    208.938064
     -5.937053    107.756327    107.756327    215.512655
     -5.908441    110.491478    110.491478    220.982956
     -5.879828    112.521737    112.521737    225.043475
     -5.851216    113.633391    113.633391    227.266783
     -5.822604    113.841514    113.841514    227.683028
     -5.793991    113.450998    113.450998    226.901996
     -5.765379    112.917631    112.917631    225.835263
     -5.736767    112.653795    112.653795    225.307589
     -5.708155    112.829246    112.829246    225.658491
     -5.679542    113.193975    113.193975    226.387949
     -5.650930    113.048384    113.048384    226.096768
     -5.622318    111.471963    111.471963    222.943927
     -5.593705    107.737488    107.737488    215.474976
     -5.565093    101.707406    101.707406    203.414811
     -5.536481     94.031603     94.031603    188.063206
     -5.507868     86.008993     86.008993    172.017987
     -5.479256     79.058027     79.058027    158.116055
     -5.450644     74.020880     74.020880    148.041759
     -5.422031     70.791760     70.791760    141.583520
     -5.393419     68.562249     68.562249    137.124498
     -5.364807     66.422921     66.422921    132.845842
     -5.336195     63.813973     63.813973    127.627947
     -5.307582     60.624829     60.624829    121.249659
     -5.278970     57.097494     57.097494    114.194988
     -5.250358     53.670487     53.670487    107.340973
     -5.221745     50.752223     50.752223    101.504446
     -5.193133     48.482408     48.482408     96.964817
     -5.164521     46.670564     46.670564     93.341127
     -5.135908     44.986024     44.986024     89.972048
     -5.107296     43.231665     43.231665     86.463330
     -5.078684     41.489783     41.489783     82.979566
     -5.050072     40.090944     40.090944     80.181888
     -5.021459     39.484800     39.484800     78.969600
     -4.992847     40.096558     40.096558     80.193117
     -4.964235     42.219490     42.219490     84.438979
     -4.935622     45.962825     45.962825     91.925650
     -4.907010     51.240795     51.240795    102.481591
     -4.878398     57.794761     57.794761    115.589522
     -4.849785     65.281770     65.281770    130.563540
     -4.821173     73.433318     73.433318    146.866636
     -4.792561     82.174447     82.174447    164.348895
     -4.763948     91.567421     91.567421    183.134842
     -4.735336    101.587326    101.587326    203.174653
     -4.706724    111.873228    111.873228    223.746456
     -4.678112    121.598451    121.598451    243.196901
     -4.649499    129.563959    129.563959    259.127918
     -4.620887    134.551957    134.551957    269.103915
     -4.592275    135.773475    135.773475    271.546950
     -4.563662    133.101553    133.101553    266.203105
     -4.535050    127.013035    127.013035    254.026069
     -4.506438    118.474695    118.474695    236.949391
     -4.477825    108.857678    108.857678    217.715357
     -4.449213     99.625900     99.625900    199.251801
     -4.420601     91.740922     91.740922    183.481843
     -4.391989     85.246153     85.246153    170.492307
     -4.363376     79.464037     79.464037    158.928075
     -4.334764     73.641433     73.641433    147.282866
     -4.306152     67.534197     67.534197    135.068394
     -4.277539     61.644560     61.644560    123.289121
     -4.248927     57.129189     57.129189    114.258377
     -4.220315     55.418158     55.418158    110.836315
     -4.191702     57.549775     57.549775    115.099551
     -4.163090     63.465168     63.465168    126.930335
     -4.134478     71.827868     71.827868    143.655736
     -4.105866     80.735288     80.735288    161.470575
     -4.077253     88.880908     88.880908    177.761816
     -4.048641     96.177059     96.177059    192.354118
     -4.020029    103.342758    103.342758    206.685517
     -3.991416    110.981335    110.981335    221.962670
     -3.962804    118.983586    118.983586    237.967172
     -3.934192    126.465828    126.465828    252.931657
     -3.905579    131.938674    131.938674    263.877348
     -3.876967    133.655954    133.655954    267.311908
     -3.848355    130.371185    130.371185    260.742371
     -3.819742    122.247752    122.247752    244.495504
     -3.791130    111.086309    111.086309    222.172617
     -3.762518     99.456153     99.456153    198.912306
     -3.733906     89.410248     89.410248    178.820496
     -3.705293     81.824501     81.824501    163.649001
     -3.676681     76.620489     76.620489    153.240978
     -3.648069     73.294074     73.294074    146.588148
     -3.619456     71.221197     71.221197    142.442394
     -3.590844     69.772791     69.772791    139.545582
     -3.562232     68.476692     68.476692    136.953383
     -3.533619     67.203742     67.203742    134.407484
     -3.505007     66.166620     66.166620    132.333239
     -3.476395     65.673041     65.673041    131.346082
     -3.447783     65.811427     65.811427    131.622854
     -3.419170     66.296354     66.296354    132.592708
     -3.390558     66.584133     66.584133    133.168266
     -3.361946     66.187571     66.187571    132.375141
     -3.333333     64.949478     64.949478    129.898957
     -3.304721     63.045983     63.045983    126.091966
     -3.276109     60.764399     60.764399    121.528799
     -3.247496     58.344636     58.344636    116.689273
     -3.218884     56.042364     56.042364    112.084729
     -3.190272     54.234694     54.234694    108.469389
     -3.161660     53.340676     53.340676    106.681352
     -3.133047     53.632798     53.632798    107.265597
     -3.104435     55.178109     55.178109    110.356219
     -3.075823     57.905090     57.905090    115.810180
     -3.047210     61.576585     61.576585    123.153169
     -3.018598     65.673920     65.673920    131.347840
     -2.989986     69.484227     69.484227    138.968455
     -2.961373     72.459841     72.459841    144.919682
     -2.932761     74.484454     74.484454    148.968909
     -2.904149     75.774089     75.774089    151.548178
     -2.875536     76.638916     76.638916    153.277832
     -2.846924     77.425955     77.425955    154.851910
     -2.818312     78.551240     78.551240    157.102480
     -2.789700     80.352563     80.352563    160.705126
     -2.761087     82.835455     82.835455    165.670910
     -2.732475     85.648310     85.648310    171.296620
     -2.703863     88.364407     88.364407    176.728814
     -2.675250     90.757307     90.757307    181.514614
     -2.646638     92.795477     92.795477    185.590954
     -2.618026     94.455227     94.455227    188.910453
     -2.589413     95.616439     95.616439    191.232877
     -2.560801     96.104979     96.104979    192.209958
     -2.532189     95.753406     95.753406    191.506813
     -2.503577     94.422029     94.422029    188.844059
     -2.474964     92.055514     92.055514    184.111029
     -2.446352     88.802335     88.802335    177.604670
     -2.417740     85.081385     85.081385    170.162770
     -2.389127     81.476225     81.476225    162.952449
     -2.360515     78.497372     78.497372    156.994744
     -2.331903     76.377320     76.377320    152.754639
     -2.303290     75.026537     75.026537    150.053074
     -2.274678     74.161634     74.161634    148.323268
     -2.246066     73.515228     73.515228    147.030456
     -2.217454     72.974239     72.974239    145.948477
     -2.188841     72.527037     72.527037    145.054074
     -2.160229     72.060886     72.060886    144.121771
     -2.131617     71.213371     71.213371    142.426742
     -2.103004     69.480790     69.480790    138.961579
     -2.074392     66.581789     66.581789    133.163577
     -2.045780     62.792564     62.792564    125.585127
     -2.017167     58.912022     58.912022    117.824043
     -1.988555     55.870292     55.870292    111.740584
     -1.959943     54.396956     54.396956    108.793912
     -1.931330     55.028665     55.028665    110.057331
     -1.902718     58.187517     58.187517    116.375034
     -1.874106     63.917028     63.917028    127.834056
     -1.845494     71.425314     71.425314    142.850629
     -1.816881     79.096182     79.096182    158.192364
     -1.788269     85.276037     85.276037    170.552073
     -1.759657     89.238445     89.238445    178.476890
     -1.731044     91.400256     91.400256    182.800513
     -1.702432     92.600540     92.600540    185.201080
     -1.673820     93.211341     93.211341    186.422682
     -1.645207     92.927330     92.927330    185.854660
     -1.616595     91.294074     91.294074    182.588147
     -1.587983     88.338852     88.338852    176.677704
     -1.559371     84.709508     84.709508    169.419017
     -1.530758     81.266737     81.266737    162.533473
     -1.502146     78.523020     78.523020    157.046040
     -1.473534     76.375795     76.375795    152.751590
     -1.444921     74.313579     74.313579    148.627159
     -1.416309     71.897606     71.897606    143.795211
     -1.387697     69.086865     69.086865    138.173731
     -1.359084     66.116892     66.116892    132.233784
     -1.330472     63.115991     63.115991    126.231982
     -1.301860     59.937925     59.937925    119.875850
     -1.273247     56.384278     56.384278    112.768556
     -1.244635     52.466158     52.466158    104.932316
     -1.216023     48.359712     48.359712     96.719425
     -1.187411     44.198203     44.198203     88.396406
     -1.158798     40.036774     40.036774     80.073548
     -1.130186     35.977081     35.977081     71.954162
     -1.101574     32.178255     32.178255     64.356509
     -1.072961     28.713247     28.713247     57.426495
     -1.044349     25.512379     25.512379     51.024759
     -1.015737     22.496425     22.496425     44.992851
     -0.987124     19.700362     19.700362     39.400723
     -0.958512     17.219008     17.219008     34.438016
     -0.929900     15.090511     15.090511     30.181022
     -0.901288     13.309210     13.309210     26.618419
     -0.872675     11.930881     11.930881     23.861761
     -0.844063     11.076909     11.076909     22.153818
     -0.815451     10.786737     10.786737     21.573474
     -0.786838     10.878368     10.878368     21.756737
     -0.758226     10.973876     10.973876     21.947752
     -0.729614     10.681988     10.681988     21.363975
     -0.701001      9.809237      9.809237     19.618474
     -0.672389      8.465917      8.465917     16.931834
     -0.643777      7.001232      7.001232     14.002465
     -0.615165      5.802308      5.802308     11.604616
     -0.586552      5.076572      5.076572     10.153143
     -0.557940      4.749570      4.749570      9.499140
     -0.529328      4.537787      4.537787      9.075573
     -0.500715      4.144157      4.144157      8.288315
     -0.472103      3.443189      3.443189      6.886377
     -0.443491      2.533349      2.533349      5.066698
     -0.414878      1.640123      1.640123      3.280247
     -0.386266      0.967442      0.967442      1.934884
     -0.357654      0.610699      0.610699      1.221398
     -0.329041      0.558573      0.558573      1.117145
     -0.300429      0.730621      0.730621      1.461242
