# EIG2DOS: Utility for SIESTA to obtain the electronic density of states
#  E. Artacho, Apr 1999, A. Garcia, Apr 2012
# ------------------------------------------
# Eigenvalues read from 2mos2-3graphene.EIG
# Using smearing parameter:   0.100
# Using    700 points in energy range
# Selected bands: 1 to: 3262
# Emin, emax in file for selected band(s):    -23.0239300    159.8565700
# Nbands, Nspin, Nk   =   3262     1    13
# E_F                 =    -4.8110 eV --> (shifted to ZERO)
# Broadening          =     0.1000 eV
#
#        E            N(up)  (=)   N(down)         Ntot
    -10.000000     10.938533     10.938533     21.877065
     -9.971388     10.514399     10.514399     21.028797
     -9.942775     10.146614     10.146614     20.293228
     -9.914163      9.931862      9.931862     19.863723
     -9.885551      9.871362      9.871362     19.742724
     -9.856938      9.905972      9.905972     19.811943
     -9.828326      9.995569      9.995569     19.991138
     -9.799714     10.162360     10.162360     20.324720
     -9.771102     10.453935     10.453935     20.907870
     -9.742489     10.850154     10.850154     21.700307
     -9.713877     11.204407     11.204407     22.408815
     -9.685265     11.306383     11.306383     22.612766
     -9.656652     11.033853     11.033853     22.067706
     -9.628040     10.443097     10.443097     20.886194
     -9.599428      9.703980      9.703980     19.407959
     -9.570815      8.963398      8.963398     17.926795
     -9.542203      8.286654      8.286654     16.573307
     -9.513591      7.712826      7.712826     15.425653
     -9.484979      7.337457      7.337457     14.674913
     -9.456366      7.330918      7.330918     14.661837
     -9.427754      7.866326      7.866326     15.732651
     -9.399142      8.995137      8.995137     17.990275
     -9.370529     10.555980     10.555980     21.111961
     -9.341917     12.199918     12.199918     24.399835
     -9.313305     13.535402     13.535402     27.070804
     -9.284692     14.305580     14.305580     28.611161
     -9.256080     14.498564     14.498564     28.997127
     -9.227468     14.340733     14.340733     28.681466
     -9.198856     14.170934     14.170934     28.341868
     -9.170243     14.240903     14.240903     28.481805
     -9.141631     14.545794     14.545794     29.091588
     -9.113019     14.804988     14.804988     29.609976
     -9.084406     14.637638     14.637638     29.275277
     -9.055794     13.842690     13.842690     27.685380
     -9.027182     12.593233     12.593233     25.186467
     -8.998569     11.385663     11.385663     22.771327
     -8.969957     10.759626     10.759626     21.519252
     -8.941345     10.990149     10.990149     21.980297
     -8.912732     11.968534     11.968534     23.937068
     -8.884120     13.322568     13.322568     26.645137
     -8.855508     14.649413     14.649413     29.298826
     -8.826896     15.695418     15.695418     31.390837
     -8.798283     16.411646     16.411646     32.823293
     -8.769671     16.918690     16.918690     33.837381
     -8.741059     17.423048     17.423048     34.846095
     -8.712446     18.084476     18.084476     36.168952
     -8.683834     18.864978     18.864978     37.729956
     -8.655222     19.476911     19.476911     38.953822
     -8.626609     19.532513     19.532513     39.065025
     -8.597997     18.834159     18.834159     37.668317
     -8.569385     17.584190     17.584190     35.168380
     -8.540773     16.308624     16.308624     32.617249
     -8.512160     15.510377     15.510377     31.020754
     -8.483548     15.327965     15.327965     30.655931
     -8.454936     15.505259     15.505259     31.010518
     -8.426323     15.685302     15.685302     31.370605
     -8.397711     15.708334     15.708334     31.416669
     -8.369099     15.613820     15.613820     31.227640
     -8.340486     15.420247     15.420247     30.840495
     -8.311874     15.028082     15.028082     30.056163
     -8.283262     14.401550     14.401550     28.803101
     -8.254649     13.776126     13.776126     27.552252
     -8.226037     13.570494     13.570494     27.140988
     -8.197425     14.054595     14.054595     28.109191
     -8.168813     15.126364     15.126364     30.252728
     -8.140200     16.400664     16.400664     32.801328
     -8.111588     17.475338     17.475338     34.950677
     -8.082976     18.139793     18.139793     36.279586
     -8.054363     18.434277     18.434277     36.868553
     -8.025751     18.590467     18.590467     37.180934
     -7.997139     18.900075     18.900075     37.800150
     -7.968526     19.555802     19.555802     39.111603
     -7.939914     20.519001     20.519001     41.038003
     -7.911302     21.468074     21.468074     42.936147
     -7.882690     21.883653     21.883653     43.767306
     -7.854077     21.307264     21.307264     42.614528
     -7.825465     19.683575     19.683575     39.367149
     -7.796853     17.514815     17.514815     35.029630
     -7.768240     15.588948     15.588948     31.177896
     -7.739628     14.418206     14.418206     28.836412
     -7.711016     13.884534     13.884534     27.769069
     -7.682403     13.445607     13.445607     26.891214
     -7.653791     12.694748     12.694748     25.389496
     -7.625179     11.732187     11.732187     23.464373
     -7.596567     11.060700     11.060700     22.121400
     -7.567954     11.197453     11.197453     22.394906
     -7.539342     12.352846     12.352846     24.705691
     -7.510730     14.338439     14.338439     28.676879
     -7.482117     16.674019     16.674019     33.348038
     -7.453505     18.820196     18.820196     37.640392
     -7.424893     20.436837     20.436837     40.873675
     -7.396280     21.507258     21.507258     43.014515
     -7.367668     22.221429     22.221429     44.442858
     -7.339056     22.720587     22.720587     45.441174
     -7.310443     22.942285     22.942285     45.884570
     -7.281831     22.686630     22.686630     45.373259
     -7.253219     21.799759     21.799759     43.599517
     -7.224607     20.300859     20.300859     40.601719
     -7.195994     18.392025     18.392025     36.784051
     -7.167382     16.406704     16.406704     32.813408
     -7.138770     14.746553     14.746553     29.493106
     -7.110157     13.786720     13.786720     27.573441
     -7.081545     13.735899     13.735899     27.471799
     -7.052933     14.536201     14.536201     29.072402
     -7.024320     15.920691     15.920691     31.841382
     -6.995708     17.608215     17.608215     35.216429
     -6.967096     19.463355     19.463355     38.926710
     -6.938484     21.507483     21.507483     43.014965
     -6.909871     23.851956     23.851956     47.703911
     -6.881259     26.650200     26.650200     53.300400
     -6.852647     30.028663     30.028663     60.057326
     -6.824034     33.949702     33.949702     67.899405
     -6.795422     38.123144     38.123144     76.246288
     -6.766810     42.097911     42.097911     84.195821
     -6.738197     45.447928     45.447928     90.895856
     -6.709585     47.878602     47.878602     95.757204
     -6.680973     49.274665     49.274665     98.549330
     -6.652361     49.807201     49.807201     99.614401
     -6.623748     49.996396     49.996396     99.992791
     -6.595136     50.494979     50.494979    100.989959
     -6.566524     51.667582     51.667582    103.335163
     -6.537911     53.403546     53.403546    106.807093
     -6.509299     55.415705     55.415705    110.831410
     -6.480687     57.696143     57.696143    115.392285
     -6.452074     60.597362     60.597362    121.194724
     -6.423462     64.481998     64.481998    128.963996
     -6.394850     69.396040     69.396040    138.792079
     -6.366237     75.095558     75.095558    150.191116
     -6.337625     81.241043     81.241043    162.482085
     -6.309013     87.425504     87.425504    174.851007
     -6.280401     93.068148     93.068148    186.136296
     -6.251788     97.467391     97.467391    194.934781
     -6.223176    100.081750    100.081750    200.163500
     -6.194564    100.791306    100.791306    201.582611
     -6.165951     99.946059     99.946059    199.892117
     -6.137339     98.240755     98.240755    196.481510
     -6.108727     96.476208     96.476208    192.952416
     -6.080114     95.193718     95.193718    190.387437
     -6.051502     94.327137     94.327137    188.654275
     -6.022890     93.217863     93.217863    186.435726
     -5.994278     91.122360     91.122360    182.244719
     -5.965665     87.833426     87.833426    175.666852
     -5.937053     83.880657     83.880657    167.761314
     -5.908441     80.181587     80.181587    160.363174
     -5.879828     77.470922     77.470922    154.941844
     -5.851216     75.895560     75.895560    151.791120
     -5.822604     74.959486     74.959486    149.918972
     -5.793991     73.815532     73.815532    147.631065
     -5.765379     71.751625     71.751625    143.503249
     -5.736767     68.593344     68.593344    137.186688
     -5.708155     64.775235     64.775235    129.550470
     -5.679542     61.050880     61.050880    122.101761
     -5.650930     58.034239     58.034239    116.068478
     -5.622318     55.850659     55.850659    111.701318
     -5.593705     54.124230     54.124230    108.248460
     -5.565093     52.329903     52.329903    104.659806
     -5.536481     50.252319     50.252319    100.504639
     -5.507868     48.186180     48.186180     96.372359
     -5.479256     46.742999     46.742999     93.485997
     -5.450644     46.437705     46.437705     92.875411
     -5.422031     47.328031     47.328031     94.656061
     -5.393419     48.937166     48.937166     97.874332
     -5.364807     50.586748     50.586748    101.173497
     -5.336195     51.984323     51.984323    103.968645
     -5.307582     53.600624     53.600624    107.201248
     -5.278970     56.496325     56.496325    112.992650
     -5.250358     61.773259     61.773259    123.546519
     -5.221745     70.061601     70.061601    140.123201
     -5.193133     81.177197     81.177197    162.354394
     -5.164521     93.899465     93.899465    187.798929
     -5.135908    106.064336    106.064336    212.128673
     -5.107296    115.240535    115.240535    230.481070
     -5.078684    119.734846    119.734846    239.469691
     -5.050072    119.220235    119.220235    238.440469
     -5.021459    114.613275    114.613275    229.226550
     -4.992847    107.479206    107.479206    214.958411
     -4.964235     99.384996     99.384996    198.769992
     -4.935622     91.398801     91.398801    182.797603
     -4.907010     83.904907     83.904907    167.809814
     -4.878398     76.874145     76.874145    153.748290
     -4.849785     70.341264     70.341264    140.682529
     -4.821173     64.573678     64.573678    129.147357
     -4.792561     59.819678     59.819678    119.639357
     -4.763948     56.082260     56.082260    112.164519
     -4.735336     53.249108     53.249108    106.498217
     -4.706724     51.344493     51.344493    102.688985
     -4.678112     50.532569     50.532569    101.065137
     -4.649499     50.928814     50.928814    101.857629
     -4.620887     52.564129     52.564129    105.128258
     -4.592275     55.586576     55.586576    111.173153
     -4.563662     60.374900     60.374900    120.749799
     -4.535050     67.248994     67.248994    134.497987
     -4.506438     75.936440     75.936440    151.872880
     -4.477825     85.351240     85.351240    170.702479
     -4.449213     94.014372     94.014372    188.028745
     -4.420601    100.760672    100.760672    201.521344
     -4.391989    105.065132    105.065132    210.130263
     -4.363376    106.814247    106.814247    213.628494
     -4.334764    105.988371    105.988371    211.976742
     -4.306152    102.666267    102.666267    205.332534
     -4.277539     97.210796     97.210796    194.421591
     -4.248927     90.310290     90.310290    180.620580
     -4.220315     82.886254     82.886254    165.772507
     -4.191702     76.035099     76.035099    152.070199
     -4.163090     70.884751     70.884751    141.769502
     -4.134478     68.151255     68.151255    136.302509
     -4.105866     67.632427     67.632427    135.264854
     -4.077253     68.214513     68.214513    136.429025
     -4.048641     68.551861     68.551861    137.103722
     -4.020029     67.859414     67.859414    135.718829
     -3.991416     66.151940     66.151940    132.303881
     -3.962804     63.876563     63.876563    127.753126
     -3.934192     61.435343     61.435343    122.870686
     -3.905579     58.999345     58.999345    117.998690
     -3.876967     56.574764     56.574764    113.149528
     -3.848355     54.114846     54.114846    108.229693
     -3.819742     51.621059     51.621059    103.242118
     -3.791130     49.240602     49.240602     98.481204
     -3.762518     47.284649     47.284649     94.569299
     -3.733906     46.128038     46.128038     92.256076
     -3.705293     46.070861     46.070861     92.141723
     -3.676681     47.217466     47.217466     94.434933
     -3.648069     49.369313     49.369313     98.738627
     -3.619456     52.024749     52.024749    104.049498
     -3.590844     54.604278     54.604278    109.208557
     -3.562232     56.761827     56.761827    113.523654
     -3.533619     58.469760     58.469760    116.939520
     -3.505007     59.849550     59.849550    119.699101
     -3.476395     61.054273     61.054273    122.108547
     -3.447783     62.317110     62.317110    124.634220
     -3.419170     63.884487     63.884487    127.768974
     -3.390558     65.700360     65.700360    131.400719
     -3.361946     67.231618     67.231618    134.463236
     -3.333333     67.822108     67.822108    135.644216
     -3.304721     67.315160     67.315160    134.630320
     -3.276109     66.314271     66.314271    132.628542
     -3.247496     65.855941     65.855941    131.711882
     -3.218884     66.815496     66.815496    133.630991
     -3.190272     69.422108     69.422108    138.844216
     -3.161660     73.067835     73.067835    146.135670
     -3.133047     76.543359     76.543359    153.086719
     -3.104435     78.702592     78.702592    157.405183
     -3.075823     79.155389     79.155389    158.310778
     -3.047210     78.398596     78.398596    156.797191
     -3.018598     77.269808     77.269808    154.539616
     -2.989986     76.275074     76.275074    152.550147
     -2.961373     75.376331     75.376331    150.752662
     -2.932761     74.227977     74.227977    148.455955
     -2.904149     72.433680     72.433680    144.867361
     -2.875536     69.627282     69.627282    139.254563
     -2.846924     65.593713     65.593713    131.187426
     -2.818312     60.569233     60.569233    121.138466
     -2.789700     55.427456     55.427456    110.854912
     -2.761087     51.379740     51.379740    102.759479
     -2.732475     49.294794     49.294794     98.589587
     -2.703863     49.175554     49.175554     98.351108
     -2.675250     50.210658     50.210658    100.421316
     -2.646638     51.339167     51.339167    102.678334
     -2.618026     51.914283     51.914283    103.828565
     -2.589413     52.029067     52.029067    104.058134
     -2.560801     52.302980     52.302980    104.605961
     -2.532189     53.275638     53.275638    106.551275
     -2.503577     54.838594     54.838594    109.677188
     -2.474964     56.164514     56.164514    112.329027
     -2.446352     56.250213     56.250213    112.500425
     -2.417740     54.655011     54.655011    109.310022
     -2.389127     51.814796     51.814796    103.629593
     -2.360515     48.752757     48.752757     97.505513
     -2.331903     46.587860     46.587860     93.175719
     -2.303290     46.230711     46.230711     92.461422
     -2.274678     48.211095     48.211095     96.422190
     -2.246066     52.479445     52.479445    104.958891
     -2.217454     58.340898     58.340898    116.681796
     -2.188841     64.723246     64.723246    129.446492
     -2.160229     70.580087     70.580087    141.160174
     -2.131617     75.067349     75.067349    150.134698
     -2.103004     77.531997     77.531997    155.063993
     -2.074392     77.672337     77.672337    155.344673
     -2.045780     75.895749     75.895749    151.791499
     -2.017167     73.381854     73.381854    146.763707
     -1.988555     71.487573     71.487573    142.975145
     -1.959943     70.851644     70.851644    141.703287
     -1.931330     70.995403     70.995403    141.990806
     -1.902718     70.812408     70.812408    141.624815
     -1.874106     69.485718     69.485718    138.971435
     -1.845494     66.975383     66.975383    133.950767
     -1.816881     63.728487     63.728487    127.456973
     -1.788269     60.104895     60.104895    120.209790
     -1.759657     56.190109     56.190109    112.380219
     -1.731044     52.043957     52.043957    104.087914
     -1.702432     47.915309     47.915309     95.830619
     -1.673820     44.160842     44.160842     88.321684
     -1.645207     41.052219     41.052219     82.104439
     -1.616595     38.675812     38.675812     77.351625
     -1.587983     36.891991     36.891991     73.783983
     -1.559371     35.316785     35.316785     70.633571
     -1.530758     33.440093     33.440093     66.880187
     -1.502146     30.921679     30.921679     61.843359
     -1.473534     27.850945     27.850945     55.701890
     -1.444921     24.704323     24.704323     49.408646
     -1.416309     22.005990     22.005990     44.011979
     -1.387697     19.987883     19.987883     39.975767
     -1.359084     18.529438     18.529438     37.058875
     -1.330472     17.368018     17.368018     34.736035
     -1.301860     16.331716     16.331716     32.663432
     -1.273247     15.396445     15.396445     30.792890
     -1.244635     14.600006     14.600006     29.200012
     -1.216023     13.962990     13.962990     27.925981
     -1.187411     13.481284     13.481284     26.962568
     -1.158798     13.147515     13.147515     26.295030
     -1.130186     12.955118     12.955118     25.910236
     -1.101574     12.872677     12.872677     25.745354
     -1.072961     12.796065     12.796065     25.592130
     -1.044349     12.523303     12.523303     25.046605
     -1.015737     11.816803     11.816803     23.633605
     -0.987124     10.550602     10.550602     21.101204
     -0.958512      8.843632      8.843632     17.687265
     -0.929900      7.068442      7.068442     14.136884
     -0.901288      5.702900      5.702900     11.405800
     -0.872675      5.088876      5.088876     10.177753
     -0.844063      5.230334      5.230334     10.460668
     -0.815451      5.767366      5.767366     11.534732
     -0.786838      6.167988      6.167988     12.335975
     -0.758226      6.029019      6.029019     12.058037
     -0.729614      5.295384      5.295384     10.590768
     -0.701001      4.269493      4.269493      8.538986
     -0.672389      3.426507      3.426507      6.853015
     -0.643777      3.153499      3.153499      6.306999
     -0.615165      3.541623      3.541623      7.083246
     -0.586552      4.324661      4.324661      8.649322
     -0.557940      5.008682      5.008682     10.017363
     -0.529328      5.148940      5.148940     10.297881
     -0.500715      4.612423      4.612423      9.224846
     -0.472103      3.638162      3.638162      7.276324
     -0.443491      2.654265      2.654265      5.308530
     -0.414878      2.006521      2.006521      4.013043
     -0.386266      1.797437      1.797437      3.594873
     -0.357654      1.905927      1.905927      3.811854
     -0.329041      2.114161      2.114161      4.228322
     -0.300429      2.230944      2.230944      4.461888
