# EIG2DOS: Utility for SIESTA to obtain the electronic density of states
#  E. Artacho, Apr 1999, A. Garcia, Apr 2012
# ------------------------------------------
# Eigenvalues read from 2mos2-3graphene.EIG
# Using smearing parameter:   0.100
# Using    700 points in energy range
# Selected bands: 1 to: 3262
# Emin, emax in file for selected band(s):    -23.0266800    159.8427200
# Nbands, Nspin, Nk   =   3262     1    13
# E_F                 =    -4.8134 eV --> (shifted to ZERO)
# Broadening          =     0.1000 eV
#
#        E            N(up)  (=)   N(down)         Ntot
    -10.000000     11.430226     11.430226     22.860452
     -9.971388     10.733344     10.733344     21.466689
     -9.942775     10.091599     10.091599     20.183199
     -9.914163      9.576972      9.576972     19.153945
     -9.885551      9.210974      9.210974     18.421949
     -9.856938      9.036696      9.036696     18.073392
     -9.828326      9.133489      9.133489     18.266979
     -9.799714      9.555973      9.555973     19.111946
     -9.771102     10.254623     10.254623     20.509245
     -9.742489     11.044282     11.044282     22.088563
     -9.713877     11.659606     11.659606     23.319212
     -9.685265     11.883816     11.883816     23.767633
     -9.656652     11.659768     11.659768     23.319537
     -9.628040     11.080992     11.080992     22.161984
     -9.599428     10.278535     10.278535     20.557069
     -9.570815      9.333653      9.333653     18.667307
     -9.542203      8.299622      8.299622     16.599244
     -9.513591      7.284775      7.284775     14.569551
     -9.484979      6.504404      6.504404     13.008807
     -9.456366      6.252231      6.252231     12.504462
     -9.427754      6.784986      6.784986     13.569973
     -9.399142      8.161756      8.161756     16.323513
     -9.370529     10.145002     10.145002     20.290004
     -9.341917     12.264518     12.264518     24.529036
     -9.313305     14.027937     14.027937     28.055874
     -9.284692     15.144523     15.144523     30.289047
     -9.256080     15.624808     15.624808     31.249616
     -9.227468     15.705001     15.705001     31.410001
     -9.198856     15.650108     15.650108     31.300216
     -9.170243     15.566996     15.566996     31.133992
     -9.141631     15.355217     15.355217     30.710434
     -9.113019     14.819620     14.819620     29.639239
     -9.084406     13.851356     13.851356     27.702711
     -9.055794     12.555025     12.555025     25.110050
     -9.027182     11.251257     11.251257     22.502513
     -8.998569     10.354665     10.354665     20.709331
     -8.969957     10.190433     10.190433     20.380865
     -8.941345     10.844159     10.844159     21.688319
     -8.912732     12.117321     12.117321     24.234642
     -8.884120     13.613942     13.613942     27.227884
     -8.855508     14.934469     14.934469     29.868938
     -8.826896     15.883420     15.883420     31.766840
     -8.798283     16.554619     16.554619     33.109238
     -8.769671     17.222345     17.222345     34.444690
     -8.741059     18.101694     18.101694     36.203388
     -8.712446     19.137933     19.137933     38.275866
     -8.683834     19.987132     19.987132     39.974264
     -8.655222     20.233007     20.233007     40.466014
     -8.626609     19.688064     19.688064     39.376128
     -8.597997     18.535232     18.535232     37.070463
     -8.569385     17.204515     17.204515     34.409031
     -8.540773     16.103627     16.103627     32.207254
     -8.512160     15.413678     15.413678     30.827356
     -8.483548     15.079819     15.079819     30.159637
     -8.454936     14.960236     14.960236     29.920473
     -8.426323     14.968882     14.968882     29.937763
     -8.397711     15.078446     15.078446     30.156893
     -8.369099     15.222274     15.222274     30.444548
     -8.340486     15.254146     15.254146     30.508293
     -8.311874     15.050670     15.050670     30.101341
     -8.283262     14.656333     14.656333     29.312666
     -8.254649     14.295401     14.295401     28.590802
     -8.226037     14.217469     14.217469     28.434937
     -8.197425     14.535892     14.535892     29.071783
     -8.168813     15.199112     15.199112     30.398224
     -8.140200     16.052003     16.052003     32.104005
     -8.111588     16.894125     16.894125     33.788251
     -8.082976     17.555664     17.555664     35.111328
     -8.054363     18.021865     18.021865     36.043731
     -8.025751     18.497830     18.497830     36.995660
     -7.997139     19.279600     19.279600     38.559200
     -7.968526     20.479495     20.479495     40.958989
     -7.939914     21.825970     21.825970     43.651941
     -7.911302     22.730352     22.730352     45.460704
     -7.882690     22.618979     22.618979     45.237958
     -7.854077     21.322540     21.322540     42.645079
     -7.825465     19.236919     19.236919     38.473837
     -7.796853     17.095568     17.095568     34.191137
     -7.768240     15.480381     15.480381     30.960761
     -7.739628     14.448956     14.448956     28.897911
     -7.711016     13.604817     13.604817     27.209634
     -7.682403     12.547405     12.547405     25.094811
     -7.653791     11.280753     11.280753     22.561506
     -7.625179     10.233054     10.233054     20.466108
     -7.596567      9.939698      9.939698     19.879395
     -7.567954     10.700380     10.700380     21.400761
     -7.539342     12.434336     12.434336     24.868672
     -7.510730     14.751576     14.751576     29.503152
     -7.482117     17.155401     17.155401     34.310802
     -7.453505     19.269306     19.269306     38.538611
     -7.424893     20.966662     20.966662     41.933324
     -7.396280     22.316940     22.316940     44.633880
     -7.367668     23.394241     23.394241     46.788482
     -7.339056     24.122105     24.122105     48.244210
     -7.310443     24.291473     24.291473     48.582946
     -7.281831     23.709627     23.709627     47.419255
     -7.253219     22.331969     22.331969     44.663937
     -7.224607     20.297331     20.297331     40.594662
     -7.195994     17.896975     17.896975     35.793951
     -7.167382     15.526099     15.526099     31.052199
     -7.138770     13.620585     13.620585     27.241170
     -7.110157     12.554019     12.554019     25.108038
     -7.081545     12.507552     12.507552     25.015104
     -7.052933     13.399821     13.399821     26.799642
     -7.024320     14.962306     14.962306     29.924613
     -6.995708     16.916548     16.916548     33.833095
     -6.967096     19.103902     19.103902     38.207803
     -6.938484     21.490480     21.490480     42.980960
     -6.909871     24.112620     24.112620     48.225239
     -6.881259     27.035673     27.035673     54.071346
     -6.852647     30.306904     30.306904     60.613809
     -6.824034     33.882575     33.882575     67.765150
     -6.795422     37.590371     37.590371     75.180742
     -6.766810     41.170610     41.170610     82.341220
     -6.738197     44.332886     44.332886     88.665772
     -6.709585     46.778389     46.778389     93.556778
     -6.680973     48.276158     48.276158     96.552317
     -6.652361     48.864763     48.864763     97.729527
     -6.623748     49.001940     49.001940     98.003881
     -6.595136     49.376280     49.376280     98.752561
     -6.566524     50.428097     50.428097    100.856194
     -6.537911     52.059336     52.059336    104.118672
     -6.509299     53.903351     53.903351    107.806702
     -6.480687     55.878859     55.878859    111.757719
     -6.452074     58.384988     58.384988    116.769976
     -6.423462     61.938253     61.938253    123.876505
     -6.394850     66.717604     66.717604    133.435208
     -6.366237     72.488879     72.488879    144.977758
     -6.337625     78.832130     78.832130    157.664260
     -6.309013     85.306145     85.306145    170.612290
     -6.280401     91.424358     91.424358    182.848717
     -6.251788     96.610155     96.610155    193.220310
     -6.223176    100.283701    100.283701    200.567402
     -6.194564    102.059889    102.059889    204.119779
     -6.165951    101.951370    101.951370    203.902741
     -6.137339    100.461594    100.461594    200.923187
     -6.108727     98.448511     98.448511    196.897022
     -6.080114     96.726505     96.726505    193.453009
     -6.051502     95.608055     95.608055    191.216111
     -6.022890     94.746687     94.746687    189.493374
     -5.994278     93.451850     93.451850    186.903699
     -5.965665     91.226222     91.226222    182.452444
     -5.937053     88.088748     88.088748    176.177496
     -5.908441     84.491461     84.491461    168.982921
     -5.879828     80.990374     80.990374    161.980748
     -5.851216     77.931867     77.931867    155.863734
     -5.822604     75.310129     75.310129    150.620257
     -5.793991     72.844511     72.844511    145.689022
     -5.765379     70.235002     70.235002    140.470005
     -5.736767     67.429809     67.429809    134.859618
     -5.708155     64.680639     64.680639    129.361278
     -5.679542     62.298986     62.298986    124.597972
     -5.650930     60.303100     60.303100    120.606200
     -5.622318     58.307901     58.307901    116.615803
     -5.593705     55.831160     55.831160    111.662321
     -5.565093     52.770737     52.770737    105.541474
     -5.536481     49.596974     49.596974     99.193948
     -5.507868     47.081117     47.081117     94.162234
     -5.479256     45.821653     45.821653     91.643307
     -5.450644     45.926175     45.926175     91.852350
     -5.422031     46.978893     46.978893     93.957786
     -5.393419     48.264912     48.264912     96.529825
     -5.364807     49.187190     49.187190     98.374381
     -5.336195     49.686667     49.686667     99.373335
     -5.307582     50.381046     50.381046    100.762093
     -5.278970     52.343517     52.343517    104.687035
     -5.250358     56.725930     56.725930    113.451859
     -5.221745     64.374380     64.374380    128.748760
     -5.193133     75.377661     75.377661    150.755323
     -5.164521     88.633670     88.633670    177.267339
     -5.135908    101.862738    101.862738    203.725477
     -5.107296    112.374584    112.374584    224.749167
     -5.078684    118.236749    118.236749    236.473499
     -5.050072    119.043800    119.043800    238.087601
     -5.021459    115.796542    115.796542    231.593085
     -4.992847    110.112987    110.112987    220.225974
     -4.964235    103.377544    103.377544    206.755087
     -4.935622     96.289524     96.289524    192.579048
     -4.907010     88.942397     88.942397    177.884793
     -4.878398     81.286489     81.286489    162.572977
     -4.849785     73.594733     73.594733    147.189466
     -4.821173     66.526515     66.526515    133.053030
     -4.792561     60.755302     60.755302    121.510605
     -4.763948     56.574136     56.574136    113.148272
     -4.735336     53.869965     53.869965    107.739930
     -4.706724     52.396290     52.396290    104.792579
     -4.678112     51.976926     51.976926    103.953852
     -4.649499     52.470284     52.470284    104.940568
     -4.620887     53.690234     53.690234    107.380468
     -4.592275     55.539897     55.539897    111.079794
     -4.563662     58.289747     58.289747    116.579493
     -4.535050     62.601338     62.601338    125.202676
     -4.506438     69.041178     69.041178    138.082357
     -4.477825     77.424087     77.424087    154.848174
     -4.449213     86.658803     86.658803    173.317607
     -4.420601     95.285822     95.285822    190.571644
     -4.391989    102.132653    102.132653    204.265306
     -4.363376    106.484765    106.484765    212.969531
     -4.334764    107.891478    107.891478    215.782955
     -4.306152    106.138348    106.138348    212.276696
     -4.277539    101.492101    101.492101    202.984201
     -4.248927     94.819934     94.819934    189.639868
     -4.220315     87.363531     87.363531    174.727062
     -4.191702     80.389645     80.389645    160.779290
     -4.163090     74.912247     74.912247    149.824495
     -4.134478     71.420190     71.420190    142.840381
     -4.105866     69.658562     69.658562    139.317125
     -4.077253     68.764129     68.764129    137.528258
     -4.048641     67.825483     67.825483    135.650965
     -4.020029     66.428027     66.428027    132.856053
     -3.991416     64.702392     64.702392    129.404784
     -3.962804     62.928071     62.928071    125.856142
     -3.934192     61.175518     61.175518    122.351036
     -3.905579     59.307809     59.307809    118.615619
     -3.876967     57.201154     57.201154    114.402308
     -3.848355     54.879970     54.879970    109.759941
     -3.819742     52.487648     52.487648    104.975297
     -3.791130     50.218152     50.218152    100.436303
     -3.762518     48.300654     48.300654     96.601308
     -3.733906     47.025389     47.025389     94.050778
     -3.705293     46.734461     46.734461     93.468922
     -3.676681     47.674634     47.674634     95.349268
     -3.648069     49.735640     49.735640     99.471280
     -3.619456     52.339309     52.339309    104.678617
     -3.590844     54.715065     54.715065    109.430130
     -3.562232     56.380272     56.380272    112.760545
     -3.533619     57.373319     57.373319    114.746638
     -3.505007     58.073389     58.073389    116.146778
     -3.476395     58.885398     58.885398    117.770795
     -3.447783     60.077903     60.077903    120.155806
     -3.419170     61.737990     61.737990    123.475981
     -3.390558     63.699866     63.699866    127.399733
     -3.361946     65.522837     65.522837    131.045674
     -3.333333     66.697783     66.697783    133.395565
     -3.304721     67.010882     67.010882    134.021764
     -3.276109     66.748202     66.748202    133.496403
     -3.247496     66.562973     66.562973    133.125945
     -3.218884     67.143038     67.143038    134.286075
     -3.190272     68.885207     68.885207    137.770414
     -3.161660     71.657917     71.657917    143.315835
     -3.133047     74.748178     74.748178    149.496356
     -3.104435     77.162707     77.162707    154.325415
     -3.075823     78.224654     78.224654    156.449308
     -3.047210     78.010191     78.010191    156.020381
     -3.018598     77.191843     77.191843    154.383685
     -2.989986     76.414959     76.414959    152.829918
     -2.961373     75.791671     75.791671    151.583343
     -2.932761     74.914508     74.914508    149.829016
     -2.904149     73.239083     73.239083    146.478165
     -2.875536     70.427244     70.427244    140.854488
     -2.846924     66.470486     66.470486    132.940972
     -2.818312     61.703375     61.703375    123.406749
     -2.789700     56.795329     56.795329    113.590657
     -2.761087     52.630850     52.630850    105.261700
     -2.732475     49.999249     49.999249     99.998497
     -2.703863     49.217684     49.217684     98.435367
     -2.675250     49.937430     49.937430     99.874859
     -2.646638     51.308088     51.308088    102.616177
     -2.618026     52.462690     52.462690    104.925380
     -2.589413     53.031500     53.031500    106.062999
     -2.560801     53.286071     53.286071    106.572141
     -2.532189     53.769184     53.769184    107.538368
     -2.503577     54.719993     54.719993    109.439986
     -2.474964     55.784037     55.784037    111.568075
     -2.446352     56.222603     56.222603    112.445206
     -2.417740     55.414414     55.414414    110.828827
     -2.389127     53.262544     53.262544    106.525088
     -2.360515     50.281807     50.281807    100.563613
     -2.331903     47.423644     47.423644     94.847289
     -2.303290     45.789067     45.789067     91.578135
     -2.274678     46.283820     46.283820     92.567640
     -2.246066     49.272363     49.272363     98.544726
     -2.217454     54.422220     54.422220    108.844441
     -2.188841     60.869229     60.869229    121.738458
     -2.160229     67.534955     67.534955    135.069909
     -2.131617     73.332606     73.332606    146.665212
     -2.103004     77.288654     77.288654    154.577308
     -2.074392     78.813178     78.813178    157.626356
     -2.045780     78.079273     78.079273    156.158545
     -2.017167     76.085657     76.085657    152.171313
     -1.988555     74.110224     74.110224    148.220448
     -1.959943     72.880302     72.880302    145.760603
     -1.931330     72.169827     72.169827    144.339655
     -1.902718     71.185551     71.185551    142.371102
     -1.874106     69.352696     69.352696    138.705391
     -1.845494     66.742327     66.742327    133.484655
     -1.816881     63.795355     63.795355    127.590710
     -1.788269     60.757349     60.757349    121.514699
     -1.759657     57.497795     57.497795    114.995591
     -1.731044     53.852303     53.852303    107.704606
     -1.702432     49.980964     49.980964     99.961928
     -1.673820     46.294364     46.294364     92.588728
     -1.645207     43.098631     43.098631     86.197262
     -1.616595     40.402144     40.402144     80.804287
     -1.587983     38.017870     38.017870     76.035741
     -1.559371     35.734062     35.734062     71.468123
     -1.530758     33.372759     33.372759     66.745518
     -1.502146     30.805774     30.805774     61.611548
     -1.473534     28.033421     28.033421     56.066842
     -1.444921     25.246372     25.246372     50.492744
     -1.416309     22.729018     22.729018     45.458036
     -1.387697     20.657285     20.657285     41.314569
     -1.359084     19.008191     19.008191     38.016382
     -1.330472     17.668043     17.668043     35.336086
     -1.301860     16.574393     16.574393     33.148786
     -1.273247     15.714532     15.714532     31.429063
     -1.244635     15.035072     15.035072     30.070143
     -1.216023     14.438593     14.438593     28.877187
     -1.187411     13.887138     13.887138     27.774276
     -1.158798     13.454499     13.454499     26.908999
     -1.130186     13.228237     13.228237     26.456474
     -1.101574     13.156735     13.156735     26.313471
     -1.072961     13.009311     13.009311     26.018623
     -1.044349     12.499620     12.499620     24.999239
     -1.015737     11.463963     11.463963     22.927926
     -0.987124      9.957856      9.957856     19.915711
     -0.958512      8.239324      8.239324     16.478648
     -0.929900      6.687432      6.687432     13.374865
     -0.901288      5.675941      5.675941     11.351883
     -0.872675      5.399349      5.399349     10.798698
     -0.844063      5.725706      5.725706     11.451411
     -0.815451      6.215319      6.215319     12.430638
     -0.786838      6.353388      6.353388     12.706775
     -0.758226      5.859296      5.859296     11.718591
     -0.729614      4.853758      4.853758      9.707515
     -0.701001      3.774361      3.774361      7.548721
     -0.672389      3.114354      3.114354      6.228708
     -0.643777      3.151172      3.151172      6.302344
     -0.615165      3.797940      3.797940      7.595881
     -0.586552      4.640754      4.640754      9.281507
     -0.557940      5.157663      5.157663     10.315327
     -0.529328      5.017086      5.017086     10.034171
     -0.500715      4.264565      4.264565      8.529130
     -0.472103      3.258685      3.258685      6.517369
     -0.443491      2.414407      2.414407      4.828814
     -0.414878      1.961868      1.961868      3.923737
     -0.386266      1.879830      1.879830      3.759661
     -0.357654      1.993205      1.993205      3.986411
     -0.329041      2.112541      2.112541      4.225083
     -0.300429      2.115244      2.115244      4.230488
