# EIG2DOS: Utility for SIESTA to obtain the electronic density of states
#  E. Artacho, Apr 1999, A. Garcia, Apr 2012
# ------------------------------------------
# Eigenvalues read from 3mos2-3graphene.EIG
# Using smearing parameter:   0.100
# Using    700 points in energy range
# Selected bands: 1 to: 3918
# Emin, emax in file for selected band(s):    -22.9819600    160.0911400
# Nbands, Nspin, Nk   =   3918     1    13
# E_F                 =    -4.7804 eV --> (shifted to ZERO)
# Broadening          =     0.1000 eV
#
#        E            N(up)  (=)   N(down)         Ntot
    -10.000000      9.624607      9.624607     19.249215
     -9.971388      9.284673      9.284673     18.569346
     -9.942775      9.146705      9.146705     18.293409
     -9.914163      9.296387      9.296387     18.592775
     -9.885551      9.763588      9.763588     19.527176
     -9.856938     10.446798     10.446798     20.893597
     -9.828326     11.128448     11.128448     22.256897
     -9.799714     11.598477     11.598477     23.196955
     -9.771102     11.784262     11.784262     23.568523
     -9.742489     11.756425     11.756425     23.512849
     -9.713877     11.600898     11.600898     23.201796
     -9.685265     11.297939     11.297939     22.595879
     -9.656652     10.743759     10.743759     21.487517
     -9.628040      9.888541      9.888541     19.777082
     -9.599428      8.843358      8.843358     17.686716
     -9.570815      7.854214      7.854214     15.708427
     -9.542203      7.173778      7.173778     14.347556
     -9.513591      6.943429      6.943429     13.886857
     -9.484979      7.174943      7.174943     14.349886
     -9.456366      7.820882      7.820882     15.641763
     -9.427754      8.838601      8.838601     17.677201
     -9.399142     10.175555     10.175555     20.351109
     -9.370529     11.703433     11.703433     23.406866
     -9.341917     13.182949     13.182949     26.365897
     -9.313305     14.303344     14.303344     28.606688
     -9.284692     14.782284     14.782284     29.564567
     -9.256080     14.489746     14.489746     28.979492
     -9.227468     13.551017     13.551017     27.102034
     -9.198856     12.366848     12.366848     24.733695
     -9.170243     11.494873     11.494873     22.989746
     -9.141631     11.398084     11.398084     22.796168
     -9.113019     12.168280     12.168280     24.336561
     -9.084406     13.410202     13.410202     26.820404
     -9.055794     14.427504     14.427504     28.855007
     -9.027182     14.645859     14.645859     29.291717
     -8.998569     13.987189     13.987189     27.974379
     -8.969957     12.910847     12.910847     25.821693
     -8.941345     12.097856     12.097856     24.195711
     -8.912732     12.030788     12.030788     24.061576
     -8.884120     12.768736     12.768736     25.537471
     -8.855508     14.019900     14.019900     28.039800
     -8.826896     15.369463     15.369463     30.738927
     -8.798283     16.460909     16.460909     32.921818
     -8.769671     17.081603     17.081603     34.163206
     -8.741059     17.225016     17.225016     34.450033
     -8.712446     17.123581     17.123581     34.247162
     -8.683834     17.142392     17.142392     34.284783
     -8.655222     17.515099     17.515099     35.030198
     -8.626609     18.104915     18.104915     36.209830
     -8.597997     18.439056     18.439056     36.878111
     -8.569385     18.074287     18.074287     36.148573
     -8.540773     17.022075     17.022075     34.044150
     -8.512160     15.823373     15.823373     31.646747
     -8.483548     15.150813     15.150813     30.301626
     -8.454936     15.286733     15.286733     30.573466
     -8.426323     15.956068     15.956068     31.912136
     -8.397711     16.626015     16.626015     33.252030
     -8.369099     16.923242     16.923242     33.846484
     -8.340486     16.762967     16.762967     33.525934
     -8.311874     16.177254     16.177254     32.354507
     -8.283262     15.186127     15.186127     30.372254
     -8.254649     13.923316     13.923316     27.846632
     -8.226037     12.808127     12.808127     25.616254
     -8.197425     12.437156     12.437156     24.874312
     -8.168813     13.200359     13.200359     26.400718
     -8.140200     14.961918     14.961918     29.923836
     -8.111588     17.105515     17.105515     34.211030
     -8.082976     18.908278     18.908278     37.816556
     -8.054363     19.930135     19.930135     39.860270
     -8.025751     20.145566     20.145566     40.291131
     -7.997139     19.824330     19.824330     39.648659
     -7.968526     19.352029     19.352029     38.704058
     -7.939914     19.098805     19.098805     38.197610
     -7.911302     19.287881     19.287881     38.575763
     -7.882690     19.831095     19.831095     39.662189
     -7.854077     20.259336     20.259336     40.518672
     -7.825465     19.936910     19.936910     39.873820
     -7.796853     18.532501     18.532501     37.065002
     -7.768240     16.383213     16.383213     32.766426
     -7.739628     14.354765     14.354765     28.709530
     -7.711016     13.233651     13.233651     26.467303
     -7.682403     13.162526     13.162526     26.325051
     -7.653791     13.610185     13.610185     27.220371
     -7.625179     13.871139     13.871139     27.742277
     -7.596567     13.639185     13.639185     27.278369
     -7.567954     13.201481     13.201481     26.402962
     -7.539342     13.170752     13.170752     26.341504
     -7.510730     14.024217     14.024217     28.048435
     -7.482117     15.781186     15.781186     31.562372
     -7.453505     17.986871     17.986871     35.973743
     -7.424893     19.974128     19.974128     39.948256
     -7.396280     21.232611     21.232611     42.465221
     -7.367668     21.649844     21.649844     43.299687
     -7.339056     21.471837     21.471837     42.943675
     -7.310443     21.045241     21.045241     42.090482
     -7.281831     20.562298     20.562298     41.124597
     -7.253219     19.990482     19.990482     39.980965
     -7.224607     19.192549     19.192549     38.385098
     -7.195994     18.101239     18.101239     36.202479
     -7.167382     16.818861     16.818861     33.637722
     -7.138770     15.615587     15.615587     31.231174
     -7.110157     14.854294     14.854294     29.708587
     -7.081545     14.853256     14.853256     29.706511
     -7.052933     15.728724     15.728724     31.457449
     -7.024320     17.331363     17.331363     34.662726
     -6.995708     19.350625     19.350625     38.701250
     -6.967096     21.504025     21.504025     43.008051
     -6.938484     23.653338     23.653338     47.306676
     -6.909871     25.799575     25.799575     51.599151
     -6.881259     28.048959     28.048959     56.097918
     -6.852647     30.621298     30.621298     61.242597
     -6.824034     33.827842     33.827842     67.655683
     -6.795422     37.901566     37.901566     75.803132
     -6.766810     42.735269     42.735269     85.470537
     -6.738197     47.789280     47.789280     95.578561
     -6.709585     52.362651     52.362651    104.725302
     -6.680973     56.052733     56.052733    112.105465
     -6.652361     58.965045     58.965045    117.930090
     -6.623748     61.466689     61.466689    122.933378
     -6.595136     63.786359     63.786359    127.572717
     -6.566524     65.921046     65.921046    131.842093
     -6.537911     67.916547     67.916547    135.833095
     -6.509299     70.147776     70.147776    140.295551
     -6.480687     73.237695     73.237695    146.475390
     -6.452074     77.651625     77.651625    155.303251
     -6.423462     83.353385     83.353385    166.706771
     -6.394850     89.865810     89.865810    179.731619
     -6.366237     96.663304     96.663304    193.326608
     -6.337625    103.469683    103.469683    206.939366
     -6.309013    110.172148    110.172148    220.344296
     -6.280401    116.542660    116.542660    233.085320
     -6.251788    122.167153    122.167153    244.334306
     -6.223176    126.666380    126.666380    253.332760
     -6.194564    129.903512    129.903512    259.807024
     -6.165951    131.915495    131.915495    263.830990
     -6.137339    132.672535    132.672535    265.345070
     -6.108727    131.980452    131.980452    263.960904
     -6.080114    129.660355    129.660355    259.320710
     -6.051502    125.796981    125.796981    251.593963
     -6.022890    120.750962    120.750962    241.501924
     -5.994278    114.928689    114.928689    229.857378
     -5.965665    108.649036    108.649036    217.298072
     -5.937053    102.335553    102.335553    204.671106
     -5.908441     96.746099     96.746099    193.492198
     -5.879828     92.740412     92.740412    185.480824
     -5.851216     90.614144     90.614144    181.228288
     -5.822604     89.686002     89.686002    179.372003
     -5.793991     88.680500     88.680500    177.360999
     -5.765379     86.595092     86.595092    173.190184
     -5.736767     83.249402     83.249402    166.498805
     -5.708155     79.153702     79.153702    158.307405
     -5.679542     75.029306     75.029306    150.058611
     -5.650930     71.429379     71.429379    142.858759
     -5.622318     68.572521     68.572521    137.145042
     -5.593705     66.310539     66.310539    132.621078
     -5.565093     64.208983     64.208983    128.417966
     -5.536481     61.765505     61.765505    123.531009
     -5.507868     58.741933     58.741933    117.483866
     -5.479256     55.479813     55.479813    110.959626
     -5.450644     52.955878     52.955878    105.911755
     -5.422031     52.384812     52.384812    104.769625
     -5.393419     54.502805     54.502805    109.005610
     -5.364807     59.036631     59.036631    118.073261
     -5.336195     64.868026     64.868026    129.736052
     -5.307582     70.880165     70.880165    141.760329
     -5.278970     76.808776     76.808776    153.617552
     -5.250358     83.339594     83.339594    166.679188
     -5.221745     91.411007     91.411007    182.822013
     -5.193133    101.427930    101.427930    202.855859
     -5.164521    113.016867    113.016867    226.033733
     -5.135908    125.248195    125.248195    250.496391
     -5.107296    136.844453    136.844453    273.688906
     -5.078684    146.205058    146.205058    292.410116
     -5.050072    151.581812    151.581812    303.163624
     -5.021459    151.695663    151.695663    303.391326
     -4.992847    146.496269    146.496269    292.992539
     -4.964235    137.406210    137.406210    274.812419
     -4.935622    126.761566    126.761566    253.523132
     -4.907010    116.791423    116.791423    233.582847
     -4.878398    108.704451    108.704451    217.408902
     -4.849785    102.317321    102.317321    204.634641
     -4.821173     96.453570     96.453570    192.907139
     -4.792561     89.950827     89.950827    179.901655
     -4.763948     82.593374     82.593374    165.186748
     -4.735336     75.249709     75.249709    150.499417
     -4.706724     69.203318     69.203318    138.406636
     -4.678112     65.400519     65.400519    130.801039
     -4.649499     64.275178     64.275178    128.550355
     -4.620887     66.062107     66.062107    132.124214
     -4.592275     70.959428     70.959428    141.918855
     -4.563662     78.779472     78.779472    157.558944
     -4.535050     88.511720     88.511720    177.023439
     -4.506438     98.522375     98.522375    197.044750
     -4.477825    107.450708    107.450708    214.901417
     -4.449213    114.981090    114.981090    229.962181
     -4.420601    121.694609    121.694609    243.389218
     -4.391989    128.149957    128.149957    256.299914
     -4.363376    134.078580    134.078580    268.157160
     -4.334764    138.330118    138.330118    276.660235
     -4.306152    139.460597    139.460597    278.921194
     -4.277539    136.491711    136.491711    272.983421
     -4.248927    129.476557    129.476557    258.953115
     -4.220315    119.647765    119.647765    239.295530
     -4.191702    109.032498    109.032498    218.064996
     -4.163090     99.700716     99.700716    199.401431
     -4.134478     93.077641     93.077641    186.155281
     -4.105866     89.630479     89.630479    179.260958
     -4.077253     88.889754     88.889754    177.779509
     -4.048641     89.659245     89.659245    179.318490
     -4.020029     90.412404     90.412404    180.824809
     -3.991416     89.864674     89.864674    179.729347
     -3.962804     87.481725     87.481725    174.963449
     -3.934192     83.602386     83.602386    167.204772
     -3.905579     79.101033     79.101033    158.202066
     -3.876967     74.832505     74.832505    149.665010
     -3.848355     71.213167     71.213167    142.426333
     -3.819742     68.173607     68.173607    136.347215
     -3.791130     65.470530     65.470530    130.941059
     -3.762518     63.084112     63.084112    126.168225
     -3.733906     61.349090     61.349090    122.698179
     -3.705293     60.711115     60.711115    121.422230
     -3.676681     61.368611     61.368611    122.737221
     -3.648069     63.150012     63.150012    126.300025
     -3.619456     65.682097     65.682097    131.364195
     -3.590844     68.592013     68.592013    137.184027
     -3.562232     71.531884     71.531884    143.063768
     -3.533619     74.127458     74.127458    148.254916
     -3.505007     76.083349     76.083349    152.166698
     -3.476395     77.417121     77.417121    154.834241
     -3.447783     78.507642     78.507642    157.015283
     -3.419170     79.800217     79.800217    159.600435
     -3.390558     81.449941     81.449941    162.899882
     -3.361946     83.282297     83.282297    166.564595
     -3.333333     85.069885     85.069885    170.139770
     -3.304721     86.801919     86.801919    173.603839
     -3.276109     88.703622     88.703622    177.407243
     -3.247496     91.009788     91.009788    182.019576
     -3.218884     93.666738     93.666738    187.333477
     -3.190272     96.241696     96.241696    192.483391
     -3.161660     98.240518     98.240518    196.481036
     -3.133047     99.615875     99.615875    199.231750
     -3.104435    100.869129    100.869129    201.738259
     -3.075823    102.456019    102.456019    204.912038
     -3.047210    104.052595    104.052595    208.105191
     -3.018598    104.592086    104.592086    209.184173
     -2.989986    103.234397    103.234397    206.468793
     -2.961373    100.322843    100.322843    200.645687
     -2.932761     97.233797     97.233797    194.467595
     -2.904149     95.134626     95.134626    190.269253
     -2.875536     93.866048     93.866048    187.732097
     -2.846924     92.107999     92.107999    184.215999
     -2.818312     88.689544     88.689544    177.379087
     -2.789700     83.740435     83.740435    167.480870
     -2.761087     78.579660     78.579660    157.159320
     -2.732475     74.554816     74.554816    149.109632
     -2.703863     72.058059     72.058059    144.116117
     -2.675250     70.605759     70.605759    141.211518
     -2.646638     69.664648     69.664648    139.329296
     -2.618026     69.219967     69.219967    138.439935
     -2.589413     69.560512     69.560512    139.121025
     -2.560801     70.691351     70.691351    141.382702
     -2.532189     72.100078     72.100078    144.200156
     -2.503577     73.091412     73.091412    146.182825
     -2.474964     73.287910     73.287910    146.575820
     -2.446352     72.826979     72.826979    145.653958
     -2.417740     72.164425     72.164425    144.328849
     -2.389127     71.722412     71.722412    143.444824
     -2.360515     71.661559     71.661559    143.323117
     -2.331903     71.905443     71.905443    143.810886
     -2.303290     72.336611     72.336611    144.673222
     -2.274678     72.953072     72.953072    145.906145
     -2.246066     73.862377     73.862377    147.724755
     -2.217454     75.215142     75.215142    150.430285
     -2.188841     77.229953     77.229953    154.459906
     -2.160229     80.239742     80.239742    160.479485
     -2.131617     84.535739     84.535739    169.071478
     -2.103004     89.995119     89.995119    179.990238
     -2.074392     95.822255     95.822255    191.644511
     -2.045780    100.748170    100.748170    201.496340
     -2.017167    103.647619    103.647619    207.295237
     -1.988555    104.136673    104.136673    208.273347
     -1.959943    102.692906    102.692906    205.385812
     -1.931330    100.216509    100.216509    200.433018
     -1.902718     97.393330     97.393330    194.786661
     -1.874106     94.351772     94.351772    188.703544
     -1.845494     90.834388     90.834388    181.668776
     -1.816881     86.670262     86.670262    173.340524
     -1.788269     82.077038     82.077038    164.154076
     -1.759657     77.483229     77.483229    154.966458
     -1.731044     73.075895     73.075895    146.151791
     -1.702432     68.631471     68.631471    137.262942
     -1.673820     63.879498     63.879498    127.758996
     -1.645207     58.974724     58.974724    117.949449
     -1.616595     54.480228     54.480228    108.960456
     -1.587983     50.847375     50.847375    101.694750
     -1.559371     47.975714     47.975714     95.951429
     -1.530758     45.320187     45.320187     90.640373
     -1.502146     42.379872     42.379872     84.759745
     -1.473534     39.034039     39.034039     78.068078
     -1.444921     35.463632     35.463632     70.927264
     -1.416309     31.884700     31.884700     63.769400
     -1.387697     28.429594     28.429594     56.859188
     -1.359084     25.227816     25.227816     50.455632
     -1.330472     22.493944     22.493944     44.987888
     -1.301860     20.467528     20.467528     40.935056
     -1.273247     19.241652     19.241652     38.483303
     -1.244635     18.642241     18.642241     37.284483
     -1.216023     18.277592     18.277592     36.555184
     -1.187411     17.730475     17.730475     35.460951
     -1.158798     16.767713     16.767713     33.535425
     -1.130186     15.456894     15.456894     30.913788
     -1.101574     14.129731     14.129731     28.259462
     -1.072961     13.178046     13.178046     26.356092
     -1.044349     12.770118     12.770118     25.540237
     -1.015737     12.690780     12.690780     25.381560
     -0.987124     12.463082     12.463082     24.926163
     -0.958512     11.677652     11.677652     23.355304
     -0.929900     10.273921     10.273921     20.547843
     -0.901288      8.574653      8.574653     17.149305
     -0.872675      7.078549      7.078549     14.157098
     -0.844063      6.165148      6.165148     12.330295
     -0.815451      5.891615      5.891615     11.783230
     -0.786838      5.992682      5.992682     11.985365
     -0.758226      6.066746      6.066746     12.133491
     -0.729614      5.813122      5.813122     11.626244
     -0.701001      5.176192      5.176192     10.352384
     -0.672389      4.347715      4.347715      8.695430
     -0.643777      3.661259      3.661259      7.322517
     -0.615165      3.424654      3.424654      6.849307
     -0.586552      3.741635      3.741635      7.483270
     -0.557940      4.412316      4.412316      8.824632
     -0.529328      5.006358      5.006358     10.012716
     -0.500715      5.104278      5.104278     10.208555
     -0.472103      4.556552      4.556552      9.113104
     -0.443491      3.567947      3.567947      7.135894
     -0.414878      2.549180      2.549180      5.098360
     -0.386266      1.865699      1.865699      3.731398
     -0.357654      1.664369      1.664369      3.328738
     -0.329041      1.853128      1.853128      3.706256
     -0.300429      2.191763      2.191763      4.383527
