# EIG2DOS: Utility for SIESTA to obtain the electronic density of states
#  E. Artacho, Apr 1999, A. Garcia, Apr 2012
# ------------------------------------------
# Eigenvalues read from 3mos2-3graphene.EIG
# Using smearing parameter:   0.100
# Using    700 points in energy range
# Selected bands: 1 to: 3918
# Emin, emax in file for selected band(s):    -22.9724600    160.0677100
# Nbands, Nspin, Nk   =   3918     1    13
# E_F                 =    -4.7884 eV --> (shifted to ZERO)
# Broadening          =     0.1000 eV
#
#        E            N(up)  (=)   N(down)         Ntot
    -10.000000     12.167221     12.167221     24.334442
     -9.971388     11.393773     11.393773     22.787547
     -9.942775     10.556616     10.556616     21.113232
     -9.914163      9.825436      9.825436     19.650871
     -9.885551      9.257865      9.257865     18.515731
     -9.856938      8.870601      8.870601     17.741203
     -9.828326      8.725840      8.725840     17.451681
     -9.799714      8.926086      8.926086     17.852172
     -9.771102      9.520224      9.520224     19.040448
     -9.742489     10.411024     10.411024     20.822047
     -9.713877     11.347253     11.347253     22.694505
     -9.685265     12.021794     12.021794     24.043588
     -9.656652     12.221377     12.221377     24.442754
     -9.628040     11.917639     11.917639     23.835279
     -9.599428     11.225640     11.225640     22.451281
     -9.570815     10.284148     10.284148     20.568297
     -9.542203      9.184738      9.184738     18.369477
     -9.513591      8.002104      8.002104     16.004208
     -9.484979      6.869845      6.869845     13.739690
     -9.456366      6.027035      6.027035     12.054070
     -9.427754      5.791526      5.791526     11.583053
     -9.399142      6.440126      6.440126     12.880252
     -9.370529      8.032415      8.032415     16.064830
     -9.341917     10.297023     10.297023     20.594046
     -9.313305     12.696258     12.696258     25.392516
     -9.284692     14.659942     14.659942     29.319884
     -9.256080     15.847040     15.847040     31.694080
     -9.227468     16.269709     16.269709     32.539419
     -9.198856     16.204032     16.204032     32.408065
     -9.170243     15.954767     15.954767     31.909534
     -9.141631     15.648100     15.648100     31.296200
     -9.113019     15.200269     15.200269     30.400537
     -9.084406     14.457310     14.457310     28.914620
     -9.055794     13.370398     13.370398     26.740795
     -9.027182     12.080183     12.080183     24.160365
     -8.998569     10.882427     10.882427     21.764853
     -8.969957     10.121539     10.121539     20.243079
     -8.941345     10.068090     10.068090     20.136181
     -8.912732     10.810518     10.810518     21.621037
     -8.884120     12.184911     12.184911     24.369821
     -8.855508     13.800964     13.800964     27.601929
     -8.826896     15.216566     15.216566     30.433133
     -8.798283     16.192732     16.192732     32.385465
     -8.769671     16.835979     16.835979     33.671958
     -8.741059     17.484163     17.484163     34.968326
     -8.712446     18.395302     18.395302     36.790603
     -8.683834     19.476904     19.476904     38.953807
     -8.655222     20.295797     20.295797     40.591593
     -8.626609     20.393222     20.393222     40.786444
     -8.597997     19.645254     19.645254     39.290508
     -8.569385     18.351305     18.351305     36.702610
     -8.540773     16.995926     16.995926     33.991852
     -8.512160     15.927063     15.927063     31.854125
     -8.483548     15.224649     15.224649     30.449298
     -8.454936     14.812965     14.812965     29.625929
     -8.426323     14.638830     14.638830     29.277660
     -8.397711     14.711497     14.711497     29.422994
     -8.369099     14.992274     14.992274     29.984547
     -8.340486     15.308375     15.308375     30.616751
     -8.311874     15.427985     15.427985     30.855971
     -8.283262     15.234845     15.234845     30.469690
     -8.254649     14.823830     14.823830     29.647659
     -8.226037     14.425788     14.425788     28.851576
     -8.197425     14.253519     14.253519     28.507037
     -8.168813     14.422786     14.422786     28.845571
     -8.140200     14.964422     14.964422     29.928844
     -8.111588     15.817947     15.817947     31.635895
     -8.082976     16.793485     16.793485     33.586969
     -8.054363     17.636378     17.636378     35.272755
     -8.025751     18.233387     18.233387     36.466773
     -7.997139     18.763072     18.763072     37.526144
     -7.968526     19.573052     19.573052     39.146104
     -7.939914     20.828952     20.828952     41.657903
     -7.911302     22.235442     22.235442     44.470884
     -7.882690     23.113930     23.113930     46.227859
     -7.854077     22.835512     22.835512     45.671024
     -7.825465     21.289896     21.289896     42.579793
     -7.796853     19.003802     19.003802     38.007605
     -7.768240     16.787093     16.787093     33.574186
     -7.739628     15.175942     15.175942     30.351884
     -7.711016     14.126776     14.126776     28.253553
     -7.682403     13.203365     13.203365     26.406731
     -7.653791     12.059182     12.059182     24.118364
     -7.625179     10.776679     10.776679     21.553359
     -7.596567      9.815382      9.815382     19.630764
     -7.567954      9.689828      9.689828     19.379657
     -7.539342     10.656731     10.656731     21.313461
     -7.510730     12.587930     12.587930     25.175860
     -7.482117     15.053518     15.053518     30.107036
     -7.453505     17.546773     17.546773     35.093547
     -7.424893     19.719451     19.719451     39.438903
     -7.396280     21.479223     21.479223     42.958447
     -7.367668     22.890825     22.890825     45.781649
     -7.339056     23.981714     23.981714     47.963428
     -7.310443     24.632755     24.632755     49.265509
     -7.281831     24.636865     24.636865     49.273730
     -7.253219     23.840450     23.840450     47.680900
     -7.224607     22.239432     22.239432     44.478864
     -7.195994     19.996367     19.996367     39.992735
     -7.167382     17.418907     17.418907     34.837814
     -7.138770     14.923179     14.923179     29.846359
     -7.110157     12.966971     12.966971     25.933942
     -7.081545     11.936117     11.936117     23.872235
     -7.052933     12.012479     12.012479     24.024957
     -7.024320     13.110312     13.110312     26.220624
     -6.995708     14.954816     14.954816     29.909633
     -6.967096     17.262090     17.262090     34.524180
     -6.938484     19.882208     19.882208     39.764416
     -6.909871     22.806536     22.806536     45.613072
     -6.881259     26.065235     26.065235     52.130470
     -6.852647     29.620400     29.620400     59.240800
     -6.824034     33.352012     33.352012     66.704024
     -6.795422     37.155610     37.155610     74.311220
     -6.766810     41.043516     41.043516     82.087032
     -6.738197     45.080837     45.080837     90.161674
     -6.709585     49.155208     49.155208     98.310415
     -6.680973     52.862093     52.862093    105.724186
     -6.652361     55.767781     55.767781    111.535563
     -6.623748     57.862712     57.862712    115.725425
     -6.595136     59.672041     59.672041    119.344082
     -6.566524     61.797681     61.797681    123.595362
     -6.537911     64.349893     64.349893    128.699786
     -6.509299     66.935585     66.935585    133.871170
     -6.480687     69.263427     69.263427    138.526855
     -6.452074     71.684369     71.684369    143.368738
     -6.423462     75.037821     75.037821    150.075642
     -6.394850     79.983262     79.983262    159.966524
     -6.366237     86.542299     86.542299    173.084597
     -6.337625     94.216039     94.216039    188.432079
     -6.309013    102.363507    102.363507    204.727014
     -6.280401    110.413211    110.413211    220.826422
     -6.251788    117.880407    117.880407    235.760814
     -6.223176    124.380858    124.380858    248.761717
     -6.194564    129.665113    129.665113    259.330225
     -6.165951    133.572273    133.572273    267.144546
     -6.137339    135.929279    135.929279    271.858559
     -6.108727    136.526385    136.526385    273.052770
     -6.080114    135.213075    135.213075    270.426150
     -6.051502    132.049389    132.049389    264.098778
     -6.022890    127.417963    127.417963    254.835927
     -5.994278    121.984202    121.984202    243.968403
     -5.965665    116.449703    116.449703    232.899407
     -5.937053    111.265202    111.265202    222.530403
     -5.908441    106.587926    106.587926    213.175852
     -5.879828    102.484550    102.484550    204.969099
     -5.851216     99.019312     99.019312    198.038623
     -5.822604     96.026568     96.026568    192.053136
     -5.793991     92.910916     92.910916    185.821832
     -5.765379     88.944378     88.944378    177.888757
     -5.736767     83.954971     83.954971    167.909942
     -5.708155     78.722158     78.722158    157.444316
     -5.679542     74.555649     74.555649    149.111299
     -5.650930     72.292448     72.292448    144.584897
     -5.622318     71.533892     71.533892    143.067785
     -5.593705     70.818385     70.818385    141.636771
     -5.565093     68.671901     68.671901    137.343802
     -5.536481     64.699742     64.699742    129.399484
     -5.507868     59.815565     59.815565    119.631129
     -5.479256     55.498184     55.498184    110.996369
     -5.450644     52.820437     52.820437    105.640874
     -5.422031     52.019171     52.019171    104.038343
     -5.393419     52.712750     52.712750    105.425499
     -5.364807     54.362364     54.362364    108.724727
     -5.336195     56.600658     56.600658    113.201316
     -5.307582     59.340238     59.340238    118.680476
     -5.278970     62.794161     62.794161    125.588321
     -5.250358     67.541463     67.541463    135.082926
     -5.221745     74.533844     74.533844    149.067689
     -5.193133     84.732965     84.732965    169.465929
     -5.164521     98.323761     98.323761    196.647523
     -5.135908    114.064012    114.064012    228.128024
     -5.107296    129.492110    129.492110    258.984221
     -5.078684    141.990062    141.990062    283.980124
     -5.050072    149.868879    149.868879    299.737758
     -5.021459    152.723788    152.723788    305.447576
     -4.992847    151.102331    151.102331    302.204661
     -4.964235    146.013780    146.013780    292.027560
     -4.935622    138.615837    138.615837    277.231674
     -4.907010    130.052945    130.052945    260.105890
     -4.878398    121.295662    121.295662    242.591323
     -4.849785    112.912405    112.912405    225.824811
     -4.821173    104.898367    104.898367    209.796733
     -4.792561     96.822745     96.822745    193.645490
     -4.763948     88.360285     88.360285    176.720569
     -4.735336     79.840920     79.840920    159.681839
     -4.706724     72.310385     72.310385    144.620771
     -4.678112     66.991965     66.991965    133.983929
     -4.649499     64.587947     64.587947    129.175894
     -4.620887     65.012765     65.012765    130.025531
     -4.592275     67.741924     67.741924    135.483848
     -4.563662     72.355006     72.355006    144.710012
     -4.535050     78.676545     78.676545    157.353090
     -4.506438     86.420477     86.420477    172.840954
     -4.477825     94.876551     94.876551    189.753101
     -4.449213    103.159525    103.159525    206.319049
     -4.420601    110.838555    110.838555    221.677111
     -4.391989    118.204327    118.204327    236.408654
     -4.363376    125.730450    125.730450    251.460899
     -4.334764    133.155540    133.155540    266.311079
     -4.306152    139.084789    139.084789    278.169578
     -4.277539    141.573681    141.573681    283.147362
     -4.248927    139.294928    139.294928    278.589855
     -4.220315    132.437702    132.437702    264.875405
     -4.191702    122.740145    122.740145    245.480289
     -4.163090    112.667042    112.667042    225.334085
     -4.134478    104.256341    104.256341    208.512682
     -4.105866     98.323884     98.323884    196.647768
     -4.077253     94.462024     94.462024    188.924047
     -4.048641     91.714862     91.714862    183.429724
     -4.020029     89.343404     89.343404    178.686807
     -3.991416     87.109403     87.109403    174.218805
     -3.962804     85.009738     85.009738    170.019477
     -3.934192     82.907659     82.907659    165.815319
     -3.905579     80.513947     80.513947    161.027893
     -3.876967     77.684531     77.684531    155.369062
     -3.848355     74.609625     74.609625    149.219251
     -3.819742     71.635519     71.635519    143.271038
     -3.791130     68.935535     68.935535    137.871071
     -3.762518     66.433005     66.433005    132.866010
     -3.733906     64.084849     64.084849    128.169699
     -3.705293     62.209494     62.209494    124.418987
     -3.676681     61.437769     61.437769    122.875538
     -3.648069     62.226290     62.226290    124.452581
     -3.619456     64.380613     64.380613    128.761226
     -3.590844     67.111280     67.111280    134.222560
     -3.562232     69.600521     69.600521    139.201043
     -3.533619     71.495968     71.495968    142.991935
     -3.505007     72.895784     72.895784    145.791567
     -3.476395     74.037180     74.037180    148.074359
     -3.447783     75.134283     75.134283    150.268565
     -3.419170     76.394199     76.394199    152.788398
     -3.390558     77.947691     77.947691    155.895383
     -3.361946     79.712379     79.712379    159.424759
     -3.333333     81.460561     81.460561    162.921122
     -3.304721     83.090293     83.090293    166.180586
     -3.276109     84.780451     84.780451    169.560902
     -3.247496     86.866582     86.866582    173.733165
     -3.218884     89.580162     89.580162    179.160324
     -3.190272     92.825657     92.825657    185.651315
     -3.161660     96.109227     96.109227    192.218455
     -3.133047     98.753709     98.753709    197.507417
     -3.104435    100.371878    100.371878    200.743757
     -3.075823    101.202564    101.202564    202.405127
     -3.047210    101.880024    101.880024    203.760047
     -3.018598    102.757915    102.757915    205.515830
     -2.989986    103.457037    103.457037    206.914075
     -2.961373    103.155116    103.155116    206.310231
     -2.932761    101.387409    101.387409    202.774818
     -2.904149     98.553016     98.553016    197.106031
     -2.875536     95.557610     95.557610    191.115221
     -2.846924     92.915943     92.915943    185.831887
     -2.818312     90.270781     90.270781    180.541562
     -2.789700     86.877058     86.877058    173.754116
     -2.761087     82.529678     82.529678    165.059357
     -2.732475     77.927245     77.927245    155.854491
     -2.703863     74.132906     74.132906    148.265812
     -2.675250     71.770068     71.770068    143.540136
     -2.646638     70.744592     70.744592    141.489185
     -2.618026     70.598672     70.598672    141.197344
     -2.589413     70.978841     70.978841    141.957682
     -2.560801     71.746052     71.746052    143.492104
     -2.532189     72.745335     72.745335    145.490670
     -2.503577     73.614686     73.614686    147.229371
     -2.474964     73.922962     73.922962    147.845924
     -2.446352     73.517241     73.517241    147.034482
     -2.417740     72.680316     72.680316    145.360631
     -2.389127     71.881515     71.881515    143.763030
     -2.360515     71.368727     71.368727    142.737453
     -2.331903     71.055001     71.055001    142.110001
     -2.303290     70.817656     70.817656    141.635313
     -2.274678     70.818395     70.818395    141.636789
     -2.246066     71.418780     71.418780    142.837559
     -2.217454     72.807465     72.807465    145.614930
     -2.188841     74.869446     74.869446    149.738892
     -2.160229     77.501945     77.501945    155.003891
     -2.131617     80.931122     80.931122    161.862245
     -2.103004     85.527469     85.527469    171.054938
     -2.074392     91.253384     91.253384    182.506767
     -2.045780     97.354429     97.354429    194.708857
     -2.017167    102.641835    102.641835    205.283670
     -1.988555    106.091014    106.091014    212.182027
     -1.959943    107.225426    107.225426    214.450852
     -1.931330    106.078018    106.078018    212.156037
     -1.902718    102.985891    102.985891    205.971782
     -1.874106     98.514996     98.514996    197.029991
     -1.845494     93.436577     93.436577    186.873154
     -1.816881     88.507114     88.507114    177.014228
     -1.788269     84.138677     84.138677    168.277353
     -1.759657     80.313532     80.313532    160.627064
     -1.731044     76.803555     76.803555    153.607111
     -1.702432     73.375931     73.375931    146.751863
     -1.673820     69.806766     69.806766    139.613532
     -1.645207     65.876838     65.876838    131.753676
     -1.616595     61.489410     61.489410    122.978821
     -1.587983     56.768862     56.768862    113.537724
     -1.559371     51.986643     51.986643    103.973287
     -1.530758     47.403911     47.403911     94.807821
     -1.502146     43.201716     43.201716     86.403431
     -1.473534     39.498137     39.498137     78.996274
     -1.444921     36.331999     36.331999     72.663999
     -1.416309     33.591784     33.591784     67.183568
     -1.387697     31.005668     31.005668     62.011336
     -1.359084     28.284529     28.284529     56.569057
     -1.330472     25.356093     25.356093     50.712185
     -1.301860     22.499654     22.499654     44.999307
     -1.273247     20.214347     20.214347     40.428693
     -1.244635     18.864117     18.864117     37.728234
     -1.216023     18.380088     18.380088     36.760177
     -1.187411     18.290706     18.290706     36.581412
     -1.158798     18.055010     18.055010     36.110021
     -1.130186     17.404049     17.404049     34.808099
     -1.101574     16.420278     16.420278     32.840557
     -1.072961     15.338792     15.338792     30.677585
     -1.044349     14.284483     14.284483     28.568965
     -1.015737     13.181046     13.181046     26.362091
     -0.987124     11.881782     11.881782     23.763565
     -0.958512     10.366593     10.366593     20.733187
     -0.929900      8.822479      8.822479     17.644958
     -0.901288      7.559260      7.559260     15.118520
     -0.872675      6.835888      6.835888     13.671775
     -0.844063      6.701015      6.701015     13.402030
     -0.815451      6.930591      6.930591     13.861182
     -0.786838      7.111306      7.111306     14.222612
     -0.758226      6.851722      6.851722     13.703444
     -0.729614      6.011141      6.011141     12.022282
     -0.701001      4.797566      4.797566      9.595132
     -0.672389      3.662511      3.662511      7.325022
     -0.643777      3.057169      3.057169      6.114337
     -0.615165      3.190401      3.190401      6.380802
     -0.586552      3.907497      3.907497      7.814994
     -0.557940      4.751687      4.751687      9.503375
     -0.529328      5.201561      5.201561     10.403122
     -0.500715      4.968569      4.968569      9.937139
     -0.472103      4.155165      4.155165      8.310330
     -0.443491      3.151298      3.151298      6.302597
     -0.414878      2.359348      2.359348      4.718697
     -0.386266      1.968929      1.968929      3.937858
     -0.357654      1.922719      1.922719      3.845438
     -0.329041      2.034245      2.034245      4.068490
     -0.300429      2.124208      2.124208      4.248416
