# EIG2DOS: Utility for SIESTA to obtain the electronic density of states
#  E. Artacho, Apr 1999, A. Garcia, Apr 2012
# ------------------------------------------
# Eigenvalues read from 3mos2-3graphene.EIG
# Using smearing parameter:   0.100
# Using    700 points in energy range
# Selected bands: 1 to: 3918
# Emin, emax in file for selected band(s):    -23.0839600    159.9128700
# Nbands, Nspin, Nk   =   3918     1    13
# E_F                 =    -4.8494 eV --> (shifted to ZERO)
# Broadening          =     0.1000 eV
#
#        E            N(up)  (=)   N(down)         Ntot
    -10.000000      7.789266      7.789266     15.578533
     -9.971388      6.130282      6.130282     12.260564
     -9.942775      5.537570      5.537570     11.075141
     -9.914163      5.931607      5.931607     11.863214
     -9.885551      7.032875      7.032875     14.065750
     -9.856938      8.584460      8.584460     17.168920
     -9.828326     10.428305     10.428305     20.856609
     -9.799714     12.404006     12.404006     24.808013
     -9.771102     14.212367     14.212367     28.424735
     -9.742489     15.407115     15.407115     30.814230
     -9.713877     15.550098     15.550098     31.100197
     -9.685265     14.427100     14.427100     28.854199
     -9.656652     12.181813     12.181813     24.363627
     -9.628040      9.284013      9.284013     18.568025
     -9.599428      6.349776      6.349776     12.699553
     -9.570815      3.921499      3.921499      7.842998
     -9.542203      2.341735      2.341735      4.683469
     -9.513591      1.787370      1.787370      3.574741
     -9.484979      2.401875      2.401875      4.803751
     -9.456366      4.367712      4.367712      8.735425
     -9.427754      7.788756      7.788756     15.577511
     -9.399142     12.414620     12.414620     24.829241
     -9.370529     17.430230     17.430230     34.860461
     -9.341917     21.574297     21.574297     43.148594
     -9.313305     23.638640     23.638640     47.277279
     -9.284692     23.073836     23.073836     46.147672
     -9.256080     20.287099     20.287099     40.574199
     -9.227468     16.421890     16.421890     32.843780
     -9.198856     12.780944     12.780944     25.561888
     -9.170243     10.271282     10.271282     20.542565
     -9.141631      9.159985      9.159985     18.319969
     -9.113019      9.162501      9.162501     18.325002
     -9.084406      9.698438      9.698438     19.396876
     -9.055794     10.175778     10.175778     20.351556
     -9.027182     10.271317     10.271317     20.542635
     -8.998569     10.145046     10.145046     20.290092
     -8.969957     10.403813     10.403813     20.807627
     -8.941345     11.698911     11.698911     23.397822
     -8.912732     14.171014     14.171014     28.342029
     -8.884120     17.201562     17.201562     34.403125
     -8.855508     19.750329     19.750329     39.500657
     -8.826896     21.060678     21.060678     42.121357
     -8.798283     21.161862     21.161862     42.323723
     -8.769671     20.743065     20.743065     41.486131
     -8.741059     20.510214     20.510214     41.020429
     -8.712446     20.589684     20.589684     41.179369
     -8.683834     20.495880     20.495880     40.991759
     -8.655222     19.655161     19.655161     39.310322
     -8.626609     17.959816     17.959816     35.919633
     -8.597997     15.837850     15.837850     31.675701
     -8.569385     13.866778     13.866778     27.733555
     -8.540773     12.419127     12.419127     24.838254
     -8.512160     11.672037     11.672037     23.344075
     -8.483548     11.787859     11.787859     23.575718
     -8.454936     12.884708     12.884708     25.769417
     -8.426323     14.777824     14.777824     29.555647
     -8.397711     16.849054     16.849054     33.698108
     -8.369099     18.284894     18.284894     36.569788
     -8.340486     18.499636     18.499636     36.999271
     -8.311874     17.389942     17.389942     34.779884
     -8.283262     15.313291     15.313291     30.626581
     -8.254649     12.955455     12.955455     25.910909
     -8.226037     11.205140     11.205140     22.410281
     -8.197425     10.943194     10.943194     21.886389
     -8.168813     12.652625     12.652625     25.305251
     -8.140200     16.016082     16.016082     32.032164
     -8.111588     19.874649     19.874649     39.749299
     -8.082976     22.775921     22.775921     45.551842
     -8.054363     23.864710     23.864710     47.729420
     -8.025751     23.452844     23.452844     46.905688
     -7.997139     22.721014     22.721014     45.442028
     -7.968526     22.704961     22.704961     45.409922
     -7.939914     23.397110     23.397110     46.794221
     -7.911302     23.743603     23.743603     47.487207
     -7.882690     22.529907     22.529907     45.059815
     -7.854077     19.382480     19.382480     38.764960
     -7.825465     15.082104     15.082104     30.164209
     -7.796853     11.033088     11.033088     22.066177
     -7.768240      8.389922      8.389922     16.779845
     -7.739628      7.474649      7.474649     14.949297
     -7.711016      7.785993      7.785993     15.571985
     -7.682403      8.493632      8.493632     16.987264
     -7.653791      9.064407      9.064407     18.128815
     -7.625179      9.615471      9.615471     19.230942
     -7.596567     10.759643     10.759643     21.519285
     -7.567954     13.067780     13.067780     26.135560
     -7.539342     16.571084     16.571084     33.142168
     -7.510730     20.676358     20.676358     41.352716
     -7.482117     24.503009     24.503009     49.006018
     -7.453505     27.326254     27.326254     54.652509
     -7.424893     28.810299     28.810299     57.620598
     -7.396280     28.964904     28.964904     57.929807
     -7.367668     27.972305     27.972305     55.944610
     -7.339056     26.047039     26.047039     52.094077
     -7.310443     23.383074     23.383074     46.766148
     -7.281831     20.159488     20.159488     40.318976
     -7.253219     16.574677     16.574677     33.149355
     -7.224607     12.906124     12.906124     25.812248
     -7.195994      9.576477      9.576477     19.152955
     -7.167382      7.161936      7.161936     14.323873
     -7.138770      6.282936      6.282936     12.565871
     -7.110157      7.383976      7.383976     14.767951
     -7.081545     10.484371     10.484371     20.968742
     -7.052933     15.039829     15.039829     30.079657
     -7.024320     20.065115     20.065115     40.130231
     -6.995708     24.535094     24.535094     49.070189
     -6.967096     27.826026     27.826026     55.652052
     -6.938484     29.857457     29.857457     59.714913
     -6.909871     30.857862     30.857862     61.715725
     -6.881259     31.055309     31.055309     62.110617
     -6.852647     30.621906     30.621906     61.243811
     -6.824034     29.835381     29.835381     59.670762
     -6.795422     29.134024     29.134024     58.268047
     -6.766810     28.894694     28.894694     57.789387
     -6.738197     29.152242     29.152242     58.304485
     -6.709585     29.615864     29.615864     59.231728
     -6.680973     30.039832     30.039832     60.079665
     -6.652361     30.590979     30.590979     61.181958
     -6.623748     31.808057     31.808057     63.616115
     -6.595136     34.171320     34.171320     68.342640
     -6.566524     37.730359     37.730359     75.460718
     -6.537911     42.162232     42.162232     84.324464
     -6.509299     47.134036     47.134036     94.268071
     -6.480687     52.510411     52.510411    105.020822
     -6.452074     58.165902     58.165902    116.331804
     -6.423462     63.687816     63.687816    127.375631
     -6.394850     68.455051     68.455051    136.910102
     -6.366237     72.136629     72.136629    144.273258
     -6.337625     75.048965     75.048965    150.097931
     -6.309013     77.861959     77.861959    155.723917
     -6.280401     80.927189     80.927189    161.854378
     -6.251788     84.066784     84.066784    168.133569
     -6.223176     87.187414     87.187414    174.374829
     -6.194564     91.056033     91.056033    182.112066
     -6.165951     97.265722     97.265722    194.531445
     -6.137339    107.230086    107.230086    214.460172
     -6.108727    120.989413    120.989413    241.978826
     -6.080114    136.694495    136.694495    273.388990
     -6.051502    151.048336    151.048336    302.096671
     -6.022890    160.490715    160.490715    320.981431
     -5.994278    162.674370    162.674370    325.348740
     -5.965665    157.578815    157.578815    315.157630
     -5.937053    147.606304    147.606304    295.212608
     -5.908441    136.491729    136.491729    272.983458
     -5.879828    127.551941    127.551941    255.103882
     -5.851216    122.166252    122.166252    244.332505
     -5.822604    119.293261    119.293261    238.586522
     -5.793991    116.383011    116.383011    232.766021
     -5.765379    111.235869    111.235869    222.471738
     -5.736767    103.549217    103.549217    207.098433
     -5.708155     94.960312     94.960312    189.920624
     -5.679542     87.635763     87.635763    175.271526
     -5.650930     82.741192     82.741192    165.482384
     -5.622318     80.046714     80.046714    160.093428
     -5.593705     78.630334     78.630334    157.260668
     -5.565093     77.649922     77.649922    155.299843
     -5.536481     76.454040     76.454040    152.908080
     -5.507868     74.316990     74.316990    148.633980
     -5.479256     70.541315     70.541315    141.082631
     -5.450644     65.075887     65.075887    130.151774
     -5.422031     58.940186     58.940186    117.880371
     -5.393419     53.760576     53.760576    107.521152
     -5.364807     50.680772     50.680772    101.361544
     -5.336195     49.657686     49.657686     99.315371
     -5.307582     49.769530     49.769530     99.539060
     -5.278970     50.125644     50.125644    100.251287
     -5.250358     50.490750     50.490750    100.981500
     -5.221745     51.207448     51.207448    102.414896
     -5.193133     52.692797     52.692797    105.385594
     -5.164521     55.013359     55.013359    110.026719
     -5.135908     57.862392     57.862392    115.724783
     -5.107296     60.949445     60.949445    121.898890
     -5.078684     64.474142     64.474142    128.948283
     -5.050072     69.226983     69.226983    138.453966
     -5.021459     76.189189     76.189189    152.378378
     -4.992847     85.989947     85.989947    171.979894
     -4.964235     98.631949     98.631949    197.263899
     -4.935622    113.509208    113.509208    227.018417
     -4.907010    129.483276    129.483276    258.966551
     -4.878398    144.925860    144.925860    289.851720
     -4.849785    157.851002    157.851002    315.702004
     -4.821173    166.232931    166.232931    332.465862
     -4.792561    168.463844    168.463844    336.927688
     -4.763948    163.856434    163.856434    327.712869
     -4.735336    153.034682    153.034682    306.069364
     -4.706724    137.914551    137.914551    275.829102
     -4.678112    121.075960    121.075960    242.151921
     -4.649499    104.823564    104.823564    209.647127
     -4.620887     90.579322     90.579322    181.158643
     -4.592275     78.906750     78.906750    157.813499
     -4.563662     69.836432     69.836432    139.672864
     -4.535050     63.074093     63.074093    126.148186
     -4.506438     58.134133     58.134133    116.268267
     -4.477825     54.654157     54.654157    109.308315
     -4.449213     52.774460     52.774460    105.548920
     -4.420601     53.150270     53.150270    106.300541
     -4.391989     56.491387     56.491387    112.982775
     -4.363376     63.096257     63.096257    126.192514
     -4.334764     72.847491     72.847491    145.694983
     -4.306152     85.512584     85.512584    171.025167
     -4.277539    100.766040    100.766040    201.532080
     -4.248927    117.716287    117.716287    235.432574
     -4.220315    134.461178    134.461178    268.922355
     -4.191702    148.365503    148.365503    296.731007
     -4.163090    157.060581    157.060581    314.121162
     -4.134478    159.399064    159.399064    318.798128
     -4.105866    155.677910    155.677910    311.355819
     -4.077253    147.207938    147.207938    294.415876
     -4.048641    135.765890    135.765890    271.531779
     -4.020029    123.203567    123.203567    246.407134
     -3.991416    111.114972    111.114972    222.229944
     -3.962804    100.512683    100.512683    201.025366
     -3.934192     91.685677     91.685677    183.371354
     -3.905579     84.375759     84.375759    168.751518
     -3.876967     78.183832     78.183832    156.367664
     -3.848355     72.992502     72.992502    145.985004
     -3.819742     69.201008     69.201008    138.402015
     -3.791130     67.593936     67.593936    135.187871
     -3.762518     68.791548     68.791548    137.583096
     -3.733906     72.583800     72.583800    145.167600
     -3.705293     77.727755     77.727755    155.455510
     -3.676681     82.477947     82.477947    164.955894
     -3.648069     85.392744     85.392744    170.785489
     -3.619456     85.715005     85.715005    171.430009
     -3.590844     83.226520     83.226520    166.453040
     -3.562232     78.090458     78.090458    156.180916
     -3.533619     70.992629     70.992629    141.985258
     -3.505007     63.278073     63.278073    126.556146
     -3.476395     56.679222     56.679222    113.358445
     -3.447783     52.685137     52.685137    105.370273
     -3.419170     51.939381     51.939381    103.878762
     -3.390558     54.022157     54.022157    108.044314
     -3.361946     57.791395     57.791395    115.582790
     -3.333333     62.156907     62.156907    124.313815
     -3.304721     66.743765     66.743765    133.487529
     -3.276109     71.839702     71.839702    143.679404
     -3.247496     77.669757     77.669757    155.339515
     -3.218884     83.773003     83.773003    167.546007
     -3.190272     89.118198     89.118198    178.236396
     -3.161660     92.725004     92.725004    185.450007
     -3.133047     94.078569     94.078569    188.157138
     -3.104435     93.073288     93.073288    186.146577
     -3.075823     89.867432     89.867432    179.734865
     -3.047210     85.017171     85.017171    170.034342
     -3.018598     79.736304     79.736304    159.472608
     -2.989986     75.832048     75.832048    151.664096
     -2.961373     75.084335     75.084335    150.168670
     -2.932761     78.299005     78.299005    156.598009
     -2.904149     84.656886     84.656886    169.313773
     -2.875536     92.006281     92.006281    184.012563
     -2.846924     98.133160     98.133160    196.266320
     -2.818312    102.097780    102.097780    204.195560
     -2.789700    104.463282    104.463282    208.926564
     -2.761087    106.211016    106.211016    212.422032
     -2.732475    107.430735    107.430735    214.861471
     -2.703863    107.064331    107.064331    214.128661
     -2.675250    103.884228    103.884228    207.768456
     -2.646638     97.720013     97.720013    195.440026
     -2.618026     89.833156     89.833156    179.666313
     -2.589413     82.202208     82.202208    164.404416
     -2.560801     76.392811     76.392811    152.785622
     -2.532189     72.891135     72.891135    145.782270
     -2.503577     71.261763     71.261763    142.523527
     -2.474964     70.801099     70.801099    141.602198
     -2.446352     71.064309     71.064309    142.128619
     -2.417740     71.907674     71.907674    143.815348
     -2.389127     73.184357     73.184357    146.368713
     -2.360515     74.497645     74.497645    148.995289
     -2.331903     75.294419     75.294419    150.588838
     -2.303290     75.235950     75.235950    150.471901
     -2.274678     74.468391     74.468391    148.936783
     -2.246066     73.434786     73.434786    146.869571
     -2.217454     72.348530     72.348530    144.697060
     -2.188841     70.920795     70.920795    141.841589
     -2.160229     68.743796     68.743796    137.487593
     -2.131617     66.008814     66.008814    132.017628
     -2.103004     63.835699     63.835699    127.671397
     -2.074392     63.849471     63.849471    127.698941
     -2.045780     67.310957     67.310957    134.621914
     -2.017167     74.416349     74.416349    148.832697
     -1.988555     84.136600     84.136600    168.273200
     -1.959943     94.545636     94.545636    189.091271
     -1.931330    103.426106    103.426106    206.852212
     -1.902718    108.996157    108.996157    217.992314
     -1.874106    110.527345    110.527345    221.054689
     -1.845494    108.505912    108.505912    217.011824
     -1.816881    104.232337    104.232337    208.464675
     -1.788269     99.204636     99.204636    198.409272
     -1.759657     94.675359     94.675359    189.350718
     -1.731044     91.401868     91.401868    182.803735
     -1.702432     89.457453     89.457453    178.914907
     -1.673820     88.213248     88.213248    176.426496
     -1.645207     86.699057     86.699057    173.398115
     -1.616595     84.196677     84.196677    168.393354
     -1.587983     80.561810     80.561810    161.123619
     -1.559371     75.989726     75.989726    151.979451
     -1.530758     70.580450     70.580450    141.160901
     -1.502146     64.302260     64.302260    128.604520
     -1.473534     57.400345     57.400345    114.800691
     -1.444921     50.658556     50.658556    101.317111
     -1.416309     45.075679     45.075679     90.151359
     -1.387697     41.229818     41.229818     82.459636
     -1.359084     38.928902     38.928902     77.857803
     -1.330472     37.399363     37.399363     74.798726
     -1.301860     35.799253     35.799253     71.598507
     -1.273247     33.688116     33.688116     67.376233
     -1.244635     31.173996     31.173996     62.347991
     -1.216023     28.658060     28.658060     57.316119
     -1.187411     26.393447     26.393447     52.786894
     -1.158798     24.266552     24.266552     48.533103
     -1.130186     21.997424     21.997424     43.994848
     -1.101574     19.493421     19.493421     38.986842
     -1.072961     16.951031     16.951031     33.902062
     -1.044349     14.666514     14.666514     29.333028
     -1.015737     12.855047     12.855047     25.710094
     -0.987124     11.642418     11.642418     23.284835
     -0.958512     11.079025     11.079025     22.158049
     -0.929900     11.041080     11.041080     22.082160
     -0.901288     11.151900     11.151900     22.303799
     -0.872675     10.919057     10.919057     21.838115
     -0.844063     10.037126     10.037126     20.074252
     -0.815451      8.594524      8.594524     17.189048
     -0.786838      7.007289      7.007289     14.014578
     -0.758226      5.755121      5.755121     11.510242
     -0.729614      5.127958      5.127958     10.255916
     -0.701001      5.114581      5.114581     10.229162
     -0.672389      5.435665      5.435665     10.871331
     -0.643777      5.683598      5.683598     11.367196
     -0.615165      5.528194      5.528194     11.056388
     -0.586552      4.893825      4.893825      9.787650
     -0.557940      3.980707      3.980707      7.961413
     -0.529328      3.102782      3.102782      6.205563
     -0.500715      2.476598      2.476598      4.953195
     -0.472103      2.131487      2.131487      4.262974
     -0.443491      1.975222      1.975222      3.950444
     -0.414878      1.903588      1.903588      3.807177
     -0.386266      1.845733      1.845733      3.691465
     -0.357654      1.752122      1.752122      3.504243
     -0.329041      1.595254      1.595254      3.190507
     -0.300429      1.399009      1.399009      2.798017
