# EIG2DOS: Utility for SIESTA to obtain the electronic density of states
#  E. Artacho, Apr 1999, A. Garcia, Apr 2012
# ------------------------------------------
# Eigenvalues read from 3mos2-3graphene.EIG
# Using smearing parameter:   0.100
# Using    700 points in energy range
# Selected bands: 1 to: 3918
# Emin, emax in file for selected band(s):    -23.0474600    159.9539700
# Nbands, Nspin, Nk   =   3918     1    13
# E_F                 =    -4.8090 eV --> (shifted to ZERO)
# Broadening          =     0.1000 eV
#
#        E            N(up)  (=)   N(down)         Ntot
    -10.000000      8.143503      8.143503     16.287005
     -9.971388      6.495478      6.495478     12.990956
     -9.942775      5.803773      5.803773     11.607546
     -9.914163      6.061985      6.061985     12.123970
     -9.885551      7.058914      7.058914     14.117829
     -9.856938      8.548799      8.548799     17.097597
     -9.828326     10.334491     10.334491     20.668982
     -9.799714     12.222213     12.222213     24.444426
     -9.771102     13.929531     13.929531     27.859062
     -9.742489     15.066385     15.066385     30.132770
     -9.713877     15.243766     15.243766     30.487532
     -9.685265     14.254645     14.254645     28.509290
     -9.656652     12.204146     12.204146     24.408293
     -9.628040      9.496110      9.496110     18.992220
     -9.599428      6.684720      6.684720     13.369439
     -9.570815      4.287905      4.287905      8.575809
     -9.542203      2.673305      2.673305      5.346611
     -9.513591      2.067516      2.067516      4.135031
     -9.484979      2.641629      2.641629      5.283257
     -9.456366      4.552337      4.552337      9.104674
     -9.427754      7.839399      7.839399     15.678797
     -9.399142     12.212438     12.212438     24.424877
     -9.370529     16.907647     16.907647     33.815294
     -9.341917     20.810178     20.810178     41.620356
     -9.313305     22.866073     22.866073     45.732147
     -9.284692     22.569752     22.569752     45.139504
     -9.256080     20.216347     20.216347     40.432694
     -9.227468     16.751187     16.751187     33.502373
     -9.198856     13.318841     13.318841     26.637681
     -9.170243     10.790153     10.790153     21.580305
     -9.141631      9.504992      9.504992     19.009985
     -9.113019      9.287428      9.287428     18.574855
     -9.084406      9.645233      9.645233     19.290466
     -9.055794     10.046635     10.046635     20.093270
     -9.027182     10.199150     10.199150     20.398301
     -8.998569     10.230102     10.230102     20.460204
     -8.969957     10.628112     10.628112     21.256224
     -8.941345     11.900922     11.900922     23.801844
     -8.912732     14.144064     14.144064     28.288127
     -8.884120     16.863191     16.863191     33.726383
     -8.855508     19.236187     19.236187     38.472374
     -8.826896     20.638805     20.638805     41.277610
     -8.798283     21.023668     21.023668     42.047335
     -8.769671     20.854183     20.854183     41.708367
     -8.741059     20.658691     20.658691     41.317382
     -8.712446     20.585659     20.585659     41.171317
     -8.683834     20.335370     20.335370     40.670741
     -8.655222     19.498991     19.498991     38.997982
     -8.626609     17.963366     17.963366     35.926732
     -8.597997     16.015733     16.015733     32.031465
     -8.569385     14.123432     14.123432     28.246864
     -8.540773     12.676067     12.676067     25.352133
     -8.512160     11.920266     11.920266     23.840531
     -8.483548     12.016004     12.016004     24.032009
     -8.454936     13.008160     13.008160     26.016320
     -8.426323     14.687988     14.687988     29.375976
     -8.397711     16.533890     16.533890     33.067779
     -8.369099     17.872116     17.872116     35.744232
     -8.340486     18.169750     18.169750     36.339499
     -8.311874     17.261927     17.261927     34.523854
     -8.283262     15.415343     15.415343     30.830686
     -8.254649     13.263312     13.263312     26.526624
     -8.226037     11.655651     11.655651     23.311303
     -8.197425     11.402911     11.402911     22.805822
     -8.168813     12.918072     12.918072     25.836144
     -8.140200     15.908973     15.908973     31.817946
     -8.111588     19.388043     19.388043     38.776085
     -8.082976     22.138521     22.138521     44.277042
     -8.054363     23.419873     23.419873     46.839746
     -8.025751     23.406514     23.406514     46.813028
     -7.997139     22.967888     22.967888     45.935777
     -7.968526     22.911436     22.911436     45.822873
     -7.939914     23.290017     23.290017     46.580033
     -7.911302     23.348239     23.348239     46.696477
     -7.882690     22.143589     22.143589     44.287179
     -7.854077     19.322560     19.322560     38.645119
     -7.825465     15.445081     15.445081     30.890161
     -7.796853     11.653440     11.653440     23.306880
     -7.768240      8.983890      8.983890     17.967780
     -7.739628      7.824724      7.824724     15.649448
     -7.711016      7.848713      7.848713     15.697426
     -7.682403      8.394496      8.394496     16.788992
     -7.653791      8.995489      8.995489     17.990978
     -7.625179      9.693582      9.693582     19.387164
     -7.596567     10.940813     10.940813     21.881625
     -7.567954     13.186993     13.186993     26.373986
     -7.539342     16.474197     16.474197     32.948394
     -7.510730     20.330606     20.330606     40.661213
     -7.482117     24.002454     24.002454     48.004908
     -7.453505     26.812948     26.812948     53.625896
     -7.424893     28.394496     28.394496     56.788991
     -7.396280     28.696229     28.696229     57.392458
     -7.367668     27.851368     27.851368     55.702735
     -7.339056     26.047425     26.047425     52.094849
     -7.310443     23.471334     23.471334     46.942668
     -7.281831     20.313428     20.313428     40.626855
     -7.253219     16.796015     16.796015     33.592031
     -7.224607     13.216613     13.216613     26.433225
     -7.195994      9.993286      9.993286     19.986573
     -7.167382      7.667110      7.667110     15.334221
     -7.138770      6.807824      6.807824     13.615648
     -7.110157      7.815493      7.815493     15.630985
     -7.081545     10.694960     10.694960     21.389919
     -7.052933     14.947205     14.947205     29.894410
     -7.024320     19.698543     19.698543     39.397087
     -6.995708     24.039959     24.039959     48.079918
     -6.967096     27.371221     27.371221     54.742441
     -6.938484     29.523789     29.523789     59.047577
     -6.909871     30.628918     30.628918     61.257835
     -6.881259     30.915317     30.915317     61.830634
     -6.852647     30.633466     30.633466     61.266932
     -6.824034     30.112485     30.112485     60.224969
     -6.795422     29.788477     29.788477     59.576954
     -6.766810     30.088041     30.088041     60.176082
     -6.738197     31.245409     31.245409     62.490818
     -6.709585     33.235259     33.235259     66.470517
     -6.680973     35.875678     35.875678     71.751356
     -6.652361     38.958160     38.958160     77.916321
     -6.623748     42.273853     42.273853     84.547705
     -6.595136     45.608798     45.608798     91.217596
     -6.566524     48.836585     48.836585     97.673169
     -6.537911     52.025407     52.025407    104.050814
     -6.509299     55.364489     55.364489    110.728978
     -6.480687     58.969074     58.969074    117.938148
     -6.452074     62.860484     62.860484    125.720967
     -6.423462     67.160994     67.160994    134.321987
     -6.394850     72.120472     72.120472    144.240944
     -6.366237     77.747733     77.747733    155.495466
     -6.337625     83.455983     83.455983    166.911965
     -6.309013     88.305138     88.305138    176.610276
     -6.280401     91.785258     91.785258    183.570515
     -6.251788     94.447156     94.447156    188.894313
     -6.223176     97.821734     97.821734    195.643468
     -6.194564    103.702985    103.702985    207.405970
     -6.165951    113.248027    113.248027    226.496054
     -6.137339    126.266039    126.266039    252.532077
     -6.108727    140.914631    140.914631    281.829262
     -6.080114    154.032883    154.032883    308.065766
     -6.051502    162.223899    162.223899    324.447798
     -6.022890    163.307654    163.307654    326.615307
     -5.994278    157.321788    157.321788    314.643576
     -5.965665    146.458464    146.458464    292.916928
     -5.937053    134.031365    134.031365    268.062731
     -5.908441    123.071454    123.071454    246.142907
     -5.879828    115.183934    115.183934    230.367869
     -5.851216    110.110266    110.110266    220.220532
     -5.822604    106.184273    106.184273    212.368545
     -5.793991    101.496722    101.496722    202.993444
     -5.765379     95.160804     95.160804    190.321609
     -5.736767     87.911891     87.911891    175.823782
     -5.708155     81.638655     81.638655    163.277310
     -5.679542     78.148012     78.148012    156.296024
     -5.650930     77.952845     77.952845    155.905689
     -5.622318     79.799388     79.799388    159.598776
     -5.593705     81.203754     81.203754    162.407507
     -5.565093     79.749900     79.749900    159.499801
     -5.536481     74.450616     74.450616    148.901232
     -5.507868     66.312248     66.312248    132.624495
     -5.479256     57.695198     57.695198    115.390396
     -5.450644     50.952102     50.952102    101.904204
     -5.422031     47.336386     47.336386     94.672772
     -5.393419     46.775438     46.775438     93.550875
     -5.364807     48.308414     48.308414     96.616828
     -5.336195     50.669323     50.669323    101.338646
     -5.307582     52.746118     52.746118    105.492235
     -5.278970     53.906326     53.906326    107.812652
     -5.250358     54.182878     54.182878    108.365756
     -5.221745     54.264122     54.264122    108.528244
     -5.193133     55.266819     55.266819    110.533638
     -5.164521     58.346170     58.346170    116.692340
     -5.135908     64.300399     64.300399    128.600799
     -5.107296     73.378081     73.378081    146.756162
     -5.078684     85.333184     85.333184    170.666368
     -5.050072     99.517332     99.517332    199.034665
     -5.021459    114.822384    114.822384    229.644767
     -4.992847    129.621012    129.621012    259.242024
     -4.964235    142.045562    142.045562    284.091124
     -4.935622    150.659705    150.659705    301.319411
     -4.907010    155.062965    155.062965    310.125930
     -4.878398    155.829881    155.829881    311.659762
     -4.849785    153.730076    153.730076    307.460152
     -4.821173    148.941195    148.941195    297.882390
     -4.792561    141.070194    141.070194    282.140389
     -4.763948    129.994893    129.994893    259.989786
     -4.735336    116.671329    116.671329    233.342658
     -4.706724    103.072933    103.072933    206.145866
     -4.678112     91.250690     91.250690    182.501379
     -4.649499     82.250993     82.250993    164.501985
     -4.620887     75.688124     75.688124    151.376249
     -4.592275     70.232867     70.232867    140.465733
     -4.563662     64.627443     64.627443    129.254886
     -4.535050     58.540475     58.540475    117.080950
     -4.506438     52.805283     52.805283    105.610565
     -4.477825     49.080514     49.080514     98.161028
     -4.449213     49.286335     49.286335     98.572670
     -4.420601     55.094148     55.094148    110.188297
     -4.391989     67.460907     67.460907    134.921814
     -4.363376     86.067275     86.067275    172.134550
     -4.334764    108.769058    108.769058    217.538115
     -4.306152    131.595909    131.595909    263.191818
     -4.277539    149.828108    149.828108    299.656216
     -4.248927    159.909828    159.909828    319.819657
     -4.220315    161.026741    161.026741    322.053481
     -4.191702    155.186698    155.186698    310.373396
     -4.163090    145.779442    145.779442    291.558884
     -4.134478    135.736865    135.736865    271.473731
     -4.105866    126.488441    126.488441    252.976883
     -4.077253    118.065731    118.065731    236.131463
     -4.048641    109.905921    109.905921    219.811842
     -4.020029    101.689975    101.689975    203.379951
     -3.991416     93.739350     93.739350    187.478700
     -3.962804     86.787831     86.787831    173.575661
     -3.934192     81.345817     81.345817    162.691635
     -3.905579     77.259853     77.259853    154.519705
     -3.876967     73.950726     73.950726    147.901453
     -3.848355     71.104253     71.104253    142.208507
     -3.819742     69.074350     69.074350    138.148701
     -3.791130     68.588792     68.588792    137.177584
     -3.762518     70.079243     70.079243    140.158486
     -3.733906     73.229867     73.229867    146.459734
     -3.705293     77.018135     77.018135    154.036270
     -3.676681     80.107823     80.107823    160.215646
     -3.648069     81.306180     81.306180    162.612359
     -3.619456     79.894342     79.894342    159.788683
     -3.590844     75.811871     75.811871    151.623742
     -3.562232     69.749804     69.749804    139.499607
     -3.533619     63.102507     63.102507    126.205014
     -3.505007     57.604970     57.604970    115.209941
     -3.476395     54.634030     54.634030    109.268059
     -3.447783     54.569643     54.569643    109.139286
     -3.419170     56.788330     56.788330    113.576660
     -3.390558     60.375626     60.375626    120.751252
     -3.361946     64.893673     64.893673    129.787347
     -3.333333     70.434888     70.434888    140.869776
     -3.304721     76.978421     76.978421    153.956842
     -3.276109     83.848664     83.848664    167.697329
     -3.247496     89.891606     89.891606    179.783212
     -3.218884     94.097088     94.097088    188.194177
     -3.190272     95.961562     95.961562    191.923124
     -3.161660     95.381873     95.381873    190.763746
     -3.133047     92.509835     92.509835    185.019670
     -3.104435     87.931395     87.931395    175.862791
     -3.075823     82.959060     82.959060    165.918121
     -3.047210     79.516651     79.516651    159.033303
     -3.018598     79.379235     79.379235    158.758471
     -2.989986     83.123779     83.123779    166.247558
     -2.961373     89.570008     89.570008    179.140017
     -2.932761     96.327002     96.327002    192.654005
     -2.904149    101.233225    101.233225    202.466450
     -2.875536    103.607841    103.607841    207.215683
     -2.846924    104.259688    104.259688    208.519377
     -2.818312    104.287738    104.287738    208.575476
     -2.789700    103.838353    103.838353    207.676707
     -2.761087    101.998908    101.998908    203.997817
     -2.732475     97.869357     97.869357    195.738715
     -2.703863     91.704172     91.704172    183.408344
     -2.675250     84.992697     84.992697    169.985395
     -2.646638     79.426413     79.426413    158.852825
     -2.618026     75.764787     75.764787    151.529575
     -2.589413     73.619247     73.619247    147.238494
     -2.560801     72.209907     72.209907    144.419814
     -2.532189     71.235528     71.235528    142.471056
     -2.503577     71.009181     71.009181    142.018363
     -2.474964     71.842655     71.842655    143.685309
     -2.446352     73.413089     73.413089    146.826177
     -2.417740     74.795771     74.795771    149.591541
     -2.389127     75.145262     75.145262    150.290524
     -2.360515     74.377796     74.377796    148.755593
     -2.331903     73.198844     73.198844    146.397688
     -2.303290     72.411145     72.411145    144.822291
     -2.274678     72.117033     72.117033    144.234067
     -2.246066     71.567544     71.567544    143.135087
     -2.217454     69.845562     69.845562    139.691124
     -2.188841     66.835799     66.835799    133.671598
     -2.160229     63.714705     63.714705    127.429409
     -2.131617     62.593777     62.593777    125.187553
     -2.103004     65.512492     65.512492    131.024983
     -2.074392     73.298917     73.298917    146.597833
     -2.045780     84.871176     84.871176    169.742353
     -2.017167     97.424728     97.424728    194.849455
     -1.988555    107.569389    107.569389    215.138778
     -1.959943    112.872410    112.872410    225.744821
     -1.931330    112.872782    112.872782    225.745565
     -1.902718    108.955223    108.955223    217.910446
     -1.874106    103.327694    103.327694    206.655388
     -1.845494     97.920172     97.920172    195.840344
     -1.816881     93.819435     93.819435    187.638871
     -1.788269     91.255087     91.255087    182.510174
     -1.759657     89.832151     89.832151    179.664302
     -1.731044     88.809450     88.809450    177.618900
     -1.702432     87.386181     87.386181    174.772362
     -1.673820     84.948935     84.948935    169.897871
     -1.645207     81.192070     81.192070    162.384140
     -1.616595     76.111572     76.111572    152.223143
     -1.587983     69.975074     69.975074    139.950147
     -1.559371     63.312869     63.312869    126.625738
     -1.530758     56.825865     56.825865    113.651730
     -1.502146     51.122079     51.122079    102.244158
     -1.473534     46.426540     46.426540     92.853079
     -1.444921     42.547813     42.547813     85.095625
     -1.416309     39.162029     39.162029     78.324059
     -1.387697     36.120752     36.120752     72.241504
     -1.359084     33.471015     33.471015     66.942030
     -1.330472     31.240013     31.240013     62.480026
     -1.301860     29.306067     29.306067     58.612134
     -1.273247     27.506588     27.506588     55.013175
     -1.244635     25.791980     25.791980     51.583961
     -1.216023     24.202352     24.202352     48.404704
     -1.187411     22.719812     22.719812     45.439624
     -1.158798     21.206514     21.206514     42.413027
     -1.130186     19.492937     19.492937     38.985875
     -1.101574     17.498978     17.498978     34.997955
     -1.072961     15.288666     15.288666     30.577333
     -1.044349     13.068036     13.068036     26.136073
     -1.015737     11.147936     11.147936     22.295873
     -0.987124      9.843752      9.843752     19.687504
     -0.958512      9.309635      9.309635     18.619270
     -0.929900      9.400993      9.400993     18.801985
     -0.901288      9.691201      9.691201     19.382402
     -0.872675      9.669767      9.669767     19.339534
     -0.844063      9.007628      9.007628     18.015255
     -0.815451      7.724522      7.724522     15.449045
     -0.786838      6.167621      6.167621     12.335242
     -0.758226      4.829662      4.829662      9.659325
     -0.729614      4.107312      4.107312      8.214624
     -0.701001      4.108227      4.108227      8.216455
     -0.672389      4.593617      4.593617      9.187235
     -0.643777      5.101497      5.101497     10.202993
     -0.615165      5.206584      5.206584     10.413169
     -0.586552      4.761676      4.761676      9.523352
     -0.557940      3.947611      3.947611      7.895222
     -0.529328      3.101186      3.101186      6.202372
     -0.500715      2.476015      2.476015      4.952030
     -0.472103      2.128293      2.128293      4.256586
     -0.443491      1.974330      1.974330      3.948661
     -0.414878      1.907690      1.907690      3.815381
     -0.386266      1.855492      1.855492      3.710984
     -0.357654      1.768837      1.768837      3.537675
     -0.329041      1.618626      1.618626      3.237252
     -0.300429      1.423112      1.423112      2.846223
