# EIG2DOS: Utility for SIESTA to obtain the electronic density of states
#  E. Artacho, Apr 1999, A. Garcia, Apr 2012
# ------------------------------------------
# Eigenvalues read from 3mos2-3graphene.EIG
# Using smearing parameter:   0.100
# Using    700 points in energy range
# Selected bands: 1 to: 3918
# Emin, emax in file for selected band(s):    -23.0059100    160.0053200
# Nbands, Nspin, Nk   =   3918     1    13
# E_F                 =    -4.7856 eV --> (shifted to ZERO)
# Broadening          =     0.1000 eV
#
#        E            N(up)  (=)   N(down)         Ntot
    -10.000000     10.556784     10.556784     21.113567
     -9.971388      8.670146      8.670146     17.340292
     -9.942775      7.221953      7.221953     14.443906
     -9.914163      6.486593      6.486593     12.973187
     -9.885551      6.563567      6.563567     13.127133
     -9.856938      7.380515      7.380515     14.761030
     -9.828326      8.742158      8.742158     17.484316
     -9.799714     10.392567     10.392567     20.785135
     -9.771102     12.059389     12.059389     24.118778
     -9.742489     13.464945     13.464945     26.929890
     -9.713877     14.325931     14.325931     28.651862
     -9.685265     14.390621     14.390621     28.781243
     -9.656652     13.528176     13.528176     27.056352
     -9.628040     11.812342     11.812342     23.624685
     -9.599428      9.525894      9.525894     19.051788
     -9.570815      7.079374      7.079374     14.158748
     -9.542203      4.905359      4.905359      9.810718
     -9.513591      3.388159      3.388159      6.776318
     -9.484979      2.840072      2.840072      5.680144
     -9.456366      3.490233      3.490233      6.980466
     -9.427754      5.438522      5.438522     10.877043
     -9.399142      8.561591      8.561591     17.123182
     -9.370529     12.429292     12.429292     24.858584
     -9.341917     16.328708     16.328708     32.657417
     -9.313305     19.439761     19.439761     38.879523
     -9.284692     21.099615     21.099615     42.199230
     -9.256080     21.030021     21.030021     42.060041
     -9.227468     19.424078     19.424078     38.848157
     -9.198856     16.861552     16.861552     33.723104
     -9.170243     14.094859     14.094859     28.189718
     -9.141631     11.791845     11.791845     23.583690
     -9.113019     10.328862     10.328862     20.657724
     -9.084406      9.710386      9.710386     19.420772
     -9.055794      9.656003      9.656003     19.312006
     -9.027182      9.824797      9.824797     19.649595
     -8.998569     10.052671     10.052671     20.105342
     -8.969957     10.443514     10.443514     20.887028
     -8.941345     11.248633     11.248633     22.497267
     -8.912732     12.631274     12.631274     25.262549
     -8.884120     14.501411     14.501411     29.002821
     -8.855508     16.539715     16.539715     33.079430
     -8.826896     18.370183     18.370183     36.740366
     -8.798283     19.735532     19.735532     39.471065
     -8.769671     20.562979     20.562979     41.125958
     -8.741059     20.916358     20.916358     41.832716
     -8.712446     20.899580     20.899580     41.799159
     -8.683834     20.577527     20.577527     41.155054
     -8.655222     19.950526     19.950526     39.901051
     -8.626609     18.983156     18.983156     37.966312
     -8.597997     17.665876     17.665876     35.331753
     -8.569385     16.085954     16.085954     32.171908
     -8.540773     14.474722     14.474722     28.949444
     -8.512160     13.178118     13.178118     26.356236
     -8.483548     12.527219     12.527219     25.054437
     -8.454936     12.677061     12.677061     25.354122
     -8.426323     13.531224     13.531224     27.062448
     -8.397711     14.795957     14.795957     29.591915
     -8.369099     16.090459     16.090459     32.180918
     -8.340486     17.025706     17.025706     34.051413
     -8.311874     17.264214     17.264214     34.528429
     -8.283262     16.633013     16.633013     33.266026
     -8.254649     15.274726     15.274726     30.549453
     -8.226037     13.698872     13.698872     27.397745
     -8.197425     12.621224     12.621224     25.242449
     -8.168813     12.643528     12.643528     25.287056
     -8.140200     13.954708     13.954708     27.909416
     -8.111588     16.229457     16.229457     32.458915
     -8.082976     18.793072     18.793072     37.586144
     -8.054363     20.967555     20.967555     41.935111
     -8.025751     22.387957     22.387957     44.775914
     -7.997139     23.090145     23.090145     46.180290
     -7.968526     23.340490     23.340490     46.680980
     -7.939914     23.359926     23.359926     46.719852
     -7.911302     23.136980     23.136980     46.273960
     -7.882690     22.430861     22.430861     44.861723
     -7.854077     20.946474     20.946474     41.892948
     -7.825465     18.581808     18.581808     37.163616
     -7.796853     15.599435     15.599435     31.198870
     -7.768240     12.583096     12.583096     25.166193
     -7.739628     10.166626     10.166626     20.333252
     -7.711016      8.714616      8.714616     17.429231
     -7.682403      8.200218      8.200218     16.400436
     -7.653791      8.360092      8.360092     16.720184
     -7.625179      8.968153      8.968153     17.936307
     -7.596567     10.000535     10.000535     20.001070
     -7.567954     11.596990     11.596990     23.193979
     -7.539342     13.889501     13.889501     27.779002
     -7.510730     16.831477     16.831477     33.662954
     -7.482117     20.128138     20.128138     40.256276
     -7.453505     23.301849     23.301849     46.603697
     -7.424893     25.854291     25.854291     51.708583
     -7.396280     27.429730     27.429730     54.859460
     -7.367668     27.884531     27.884531     55.769063
     -7.339056     27.246373     27.246373     54.492745
     -7.310443     25.633022     25.633022     51.266044
     -7.281831     23.206491     23.206491     46.412983
     -7.253219     20.175901     20.175901     40.351802
     -7.224607     16.817370     16.817370     33.634740
     -7.195994     13.485691     13.485691     26.971381
     -7.167382     10.611463     10.611463     21.222925
     -7.138770      8.671920      8.671920     17.343840
     -7.110157      8.105339      8.105339     16.210678
     -7.081545      9.159114      9.159114     18.318227
     -7.052933     11.741925     11.741925     23.483849
     -7.024320     15.405080     15.405080     30.810160
     -6.995708     19.497758     19.497758     38.995516
     -6.967096     23.387592     23.387592     46.775183
     -6.938484     26.607077     26.607077     53.214154
     -6.909871     28.912075     28.912075     57.824150
     -6.881259     30.322698     30.322698     60.645397
     -6.852647     31.143927     31.143927     62.287855
     -6.824034     31.885698     31.885698     63.771395
     -6.795422     33.072033     33.072033     66.144067
     -6.766810     35.046846     35.046846     70.093691
     -6.738197     37.883744     37.883744     75.767489
     -6.709585     41.410753     41.410753     82.821506
     -6.680973     45.291203     45.291203     90.582407
     -6.652361     49.104644     49.104644     98.209287
     -6.623748     52.427659     52.427659    104.855317
     -6.595136     54.962906     54.962906    109.925811
     -6.566524     56.707764     56.707764    113.415528
     -6.537911     58.031787     58.031787    116.063573
     -6.509299     59.552078     59.552078    119.104157
     -6.480687     61.884511     61.884511    123.769021
     -6.452074     65.445312     65.445312    130.890624
     -6.423462     70.364046     70.364046    140.728093
     -6.394850     76.458949     76.458949    152.917897
     -6.366237     83.268153     83.268153    166.536306
     -6.337625     90.187868     90.187868    180.375735
     -6.309013     96.709849     96.709849    193.419699
     -6.280401    102.655171    102.655171    205.310342
     -6.251788    108.281671    108.281671    216.563343
     -6.223176    114.189350    114.189350    228.378700
     -6.194564    121.010779    121.010779    242.021559
     -6.165951    128.959613    128.959613    257.919226
     -6.137339    137.441273    137.441273    274.882546
     -6.108727    145.020847    145.020847    290.041693
     -6.080114    149.917446    149.917446    299.834893
     -6.051502    150.829709    150.829709    301.659418
     -6.022890    147.578847    147.578847    295.157695
     -5.994278    141.121817    141.121817    282.243635
     -5.965665    132.945225    132.945225    265.890450
     -5.937053    124.321515    124.321515    248.643031
     -5.908441    115.955597    115.955597    231.911194
     -5.879828    108.124669    108.124669    216.249338
     -5.851216    100.976069    100.976069    201.952139
     -5.822604     94.658402     94.658402    189.316804
     -5.793991     89.297750     89.297750    178.595499
     -5.765379     84.996259     84.996259    169.992518
     -5.736767     81.875971     81.875971    163.751941
     -5.708155     80.035564     80.035564    160.071127
     -5.679542     79.357168     79.357168    158.714336
     -5.650930     79.276238     79.276238    158.552477
     -5.622318     78.741163     78.741163    157.482326
     -5.593705     76.554672     76.554672    153.109345
     -5.565093     72.027002     72.027002    144.054003
     -5.536481     65.511725     65.511725    131.023449
     -5.507868     58.359528     58.359528    116.719055
     -5.479256     52.270674     52.270674    104.541349
     -5.450644     48.500573     48.500573     97.001146
     -5.422031     47.399450     47.399450     94.798900
     -5.393419     48.439092     48.439092     96.878183
     -5.364807     50.580925     50.580925    101.161851
     -5.336195     52.752559     52.752559    105.505119
     -5.307582     54.267969     54.267969    108.535938
     -5.278970     55.117944     55.117944    110.235888
     -5.250358     56.075283     56.075283    112.150566
     -5.221745     58.532626     58.532626    117.065253
     -5.193133     64.041812     64.041812    128.083624
     -5.164521     73.686907     73.686907    147.373815
     -5.135908     87.555765     87.555765    175.111530
     -5.107296    104.524191    104.524191    209.048381
     -5.078684    122.405363    122.405363    244.810727
     -5.050072    138.444670    138.444670    276.889341
     -5.021459    150.118137    150.118137    300.236275
     -4.992847    156.002497    156.002497    312.004994
     -4.964235    156.240985    156.240985    312.481969
     -4.935622    152.249582    152.249582    304.499164
     -4.907010    145.822694    145.822694    291.645387
     -4.878398    138.218540    138.218540    276.437081
     -4.849785    129.789073    129.789073    259.578145
     -4.821173    120.344835    120.344835    240.689670
     -4.792561    109.934321    109.934321    219.868642
     -4.763948     99.374448     99.374448    198.748895
     -4.735336     90.040598     90.040598    180.081196
     -4.706724     83.059697     83.059697    166.119394
     -4.678112     78.565084     78.565084    157.130168
     -4.649499     75.593535     75.593535    151.187070
     -4.620887     72.687999     72.687999    145.375999
     -4.592275     68.799502     68.799502    137.599004
     -4.563662     63.950766     63.950766    127.901531
     -4.535050     59.336855     59.336855    118.673711
     -4.506438     56.913285     56.913285    113.826570
     -4.477825     58.762169     58.762169    117.524338
     -4.449213     66.460304     66.460304    132.920608
     -4.420601     80.490750     80.490750    160.981500
     -4.391989     99.753183     99.753183    199.506366
     -4.363376    121.418851    121.418851    242.837702
     -4.334764    141.426746    141.426746    282.853492
     -4.306152    155.648437    155.648437    311.296875
     -4.277539    161.324564    161.324564    322.649127
     -4.248927    158.115588    158.115588    316.231176
     -4.220315    148.206098    148.206098    296.412197
     -4.191702    135.322644    135.322644    270.645288
     -4.163090    123.087002    123.087002    246.174004
     -4.134478    113.556181    113.556181    227.112361
     -4.105866    106.769728    106.769728    213.539456
     -4.077253    101.494771    101.494771    202.989542
     -4.048641     96.508215     96.508215    193.016431
     -4.020029     91.425988     91.425988    182.851976
     -3.991416     86.624376     86.624376    173.248753
     -3.962804     82.635390     82.635390    165.270780
     -3.934192     79.670563     79.670563    159.341126
     -3.905579     77.532109     77.532109    155.064217
     -3.876967     75.770377     75.770377    151.540753
     -3.848355     73.936113     73.936113    147.872225
     -3.819742     71.862087     71.862087    143.724174
     -3.791130     69.824300     69.824300    139.648600
     -3.762518     68.398719     68.398719    136.797437
     -3.733906     68.055900     68.055900    136.111801
     -3.705293     68.794877     68.794877    137.589753
     -3.676681     70.094476     70.094476    140.188952
     -3.648069     71.189780     71.189780    142.379560
     -3.619456     71.442424     71.442424    142.884847
     -3.590844     70.565785     70.565785    141.131570
     -3.562232     68.658367     68.658367    137.316735
     -3.533619     66.160383     66.160383    132.320765
     -3.505007     63.790698     63.790698    127.581395
     -3.476395     62.376658     62.376658    124.753317
     -3.447783     62.552141     62.552141    125.104282
     -3.419170     64.522043     64.522043    129.044086
     -3.390558     68.092132     68.092132    136.184264
     -3.361946     72.869142     72.869142    145.738284
     -3.333333     78.371127     78.371127    156.742254
     -3.304721     83.989685     83.989685    167.979370
     -3.276109     88.981538     88.981538    177.963075
     -3.247496     92.611121     92.611121    185.222242
     -3.218884     94.376852     94.376852    188.753703
     -3.190272     94.202732     94.202732    188.405464
     -3.161660     92.531679     92.531679    185.063359
     -3.133047     90.275028     90.275028    180.550057
     -3.104435     88.575212     88.575212    177.150423
     -3.075823     88.413014     88.413014    176.826028
     -3.047210     90.214592     90.214592    180.429183
     -3.018598     93.667431     93.667431    187.334861
     -2.989986     97.854365     97.854365    195.708730
     -2.961373    101.625354    101.625354    203.250709
     -2.932761    104.012007    104.012007    208.024013
     -2.904149    104.517358    104.517358    209.034715
     -2.875536    103.196003    103.196003    206.392006
     -2.846924    100.503056    100.503056    201.006112
     -2.818312     96.974158     96.974158    193.948316
     -2.789700     92.929338     92.929338    185.858677
     -2.761087     88.442274     88.442274    176.884547
     -2.732475     83.618791     83.618791    167.237583
     -2.703863     78.896093     78.896093    157.792186
     -2.675250     74.999775     74.999775    149.999550
     -2.646638     72.544379     72.544379    145.088759
     -2.618026     71.651179     71.651179    143.302358
     -2.589413     71.921738     71.921738    143.843476
     -2.560801     72.727257     72.727257    145.454513
     -2.532189     73.521561     73.521561    147.043123
     -2.503577     73.980756     73.980756    147.961512
     -2.474964     73.998220     73.998220    147.996441
     -2.446352     73.644483     73.644483    147.288966
     -2.417740     73.119416     73.119416    146.238832
     -2.389127     72.648368     72.648368    145.296736
     -2.360515     72.320471     72.320471    144.640942
     -2.331903     71.976865     71.976865    143.953730
     -2.303290     71.282620     71.282620    142.565241
     -2.274678     69.998400     69.998400    139.996800
     -2.246066     68.290893     68.290893    136.581787
     -2.217454     66.840649     66.840649    133.681298
     -2.188841     66.628350     66.628350    133.256700
     -2.160229     68.534814     68.534814    137.069627
     -2.131617     73.026522     73.026522    146.053044
     -2.103004     80.049351     80.049351    160.098703
     -2.074392     88.997545     88.997545    177.995090
     -2.045780     98.625263     98.625263    197.250527
     -2.017167    107.069303    107.069303    214.138605
     -1.988555    112.315985    112.315985    224.631970
     -1.959943    113.098386    113.098386    226.196771
     -1.931330    109.651662    109.651662    219.303323
     -1.902718    103.675255    103.675255    207.350509
     -1.874106     97.435212     97.435212    194.870423
     -1.845494     92.615373     92.615373    185.230747
     -1.816881     89.664432     89.664432    179.328865
     -1.788269     87.944760     87.944760    175.889520
     -1.759657     86.410916     86.410916    172.821832
     -1.731044     84.269315     84.269315    168.538630
     -1.702432     81.221395     81.221395    162.442790
     -1.673820     77.286484     77.286484    154.572967
     -1.645207     72.519457     72.519457    145.038913
     -1.616595     66.949519     66.949519    133.899038
     -1.587983     60.778455     60.778455    121.556909
     -1.559371     54.552672     54.552672    109.105343
     -1.530758     49.002364     49.002364     98.004727
     -1.502146     44.595780     44.595780     89.191561
     -1.473534     41.215986     41.215986     82.431972
     -1.444921     38.293206     38.293206     76.586413
     -1.416309     35.283798     35.283798     70.567596
     -1.387697     32.072725     32.072725     64.145450
     -1.359084     28.982664     28.982664     57.965329
     -1.330472     26.430676     26.430676     52.861353
     -1.301860     24.560523     24.560523     49.121047
     -1.273247     23.180921     23.180921     46.361842
     -1.244635     22.030819     22.030819     44.061638
     -1.216023     21.040265     21.040265     42.080531
     -1.187411     20.271206     20.271206     40.542411
     -1.158798     19.635519     19.635519     39.271037
     -1.130186     18.786521     18.786521     37.573041
     -1.101574     17.362517     17.362517     34.725034
     -1.072961     15.314548     15.314548     30.629096
     -1.044349     12.961887     12.961887     25.923774
     -1.015737     10.762852     10.762852     21.525704
     -0.987124      9.076682      9.076682     18.153364
     -0.958512      8.091805      8.091805     16.183610
     -0.929900      7.834915      7.834915     15.669831
     -0.901288      8.132934      8.132934     16.265868
     -0.872675      8.578696      8.578696     17.157393
     -0.844063      8.648985      8.648985     17.297970
     -0.815451      7.982451      7.982451     15.964902
     -0.786838      6.620322      6.620322     13.240643
     -0.758226      5.003341      5.003341     10.006683
     -0.729614      3.720213      3.720213      7.440426
     -0.701001      3.189916      3.189916      6.379831
     -0.672389      3.463651      3.463651      6.927302
     -0.643777      4.219484      4.219484      8.438968
     -0.615165      4.933889      4.933889      9.867779
     -0.586552      5.157138      5.157138     10.314277
     -0.557940      4.749694      4.749694      9.499388
     -0.529328      3.922259      3.922259      7.844518
     -0.500715      3.050613      3.050613      6.101226
     -0.472103      2.419870      2.419870      4.839739
     -0.443491      2.096594      2.096594      4.193187
     -0.414878      1.984596      1.984596      3.969193
     -0.386266      1.954503      1.954503      3.909007
     -0.357654      1.917331      1.917331      3.834662
     -0.329041      1.823035      1.823035      3.646069
     -0.300429      1.650989      1.650989      3.301979
