-163.47324335093	724
-160.33843810238	723
-157.204657305262	725
-154.071900632546	725
-150.940167756818	724
-147.809458350236	726
-144.679772084631	725
-141.551108631395	725
-138.423467661561	726
-135.296848845773	724
-132.171251854297	724
-129.04667635701	724
-125.923122023416	723
-122.800588522652	725
-119.679075523457	725
-116.558582694208	723
-113.43910970293	723
-110.320656217256	723
-107.203221904433	725
-104.086806431392	725
-100.971409464647	724
-97.8570306703694	726
-94.7436697143842	725
-91.6313262621223	727
-88.5199999786822	725
-85.4096905287938	724
-82.3003975768321	725
-79.192120786809	725
-76.0848598224155	725
-72.9786143469405	723
-69.8733840233655	724
-66.7691685143081	724
-63.6659674820355	724
-60.5637805884725	726
-57.462607495195	724
-54.3624478634627	724
-51.2633013541672	725
-48.1651676278531	728
-45.0680463447592	724
-41.9719371647786	725
-38.8768397474357	727
-35.782753751975	724
-32.6896788372738	723
-29.5976146618908	724
-26.5065608840589	726
-23.41651716167	726
-20.3274831523078	726
-17.2394585132202	724
-14.1524429013485	724
-11.0664359732834	723
-7.98143738533064	723
-4.89744679345092	725
-1.814463853301	728
1.26751177977767	750
4.34848045076226	774
7.42844250494388	747
10.5073982879148	730
13.5853481455798	725
16.6622924241436	725
19.73823147015	725
22.8131656304131	726
25.8870952520689	724
28.9600206825306	723
32.0319422695475	722
35.1028603611408	727
38.1727753056468	723
41.2416874516841	725
44.3095971481728	724
47.3765047443424	724
50.4424105896706	725
53.5073150339706	725
56.571218427323	726
59.6341211201065	726
62.6960234629658	727
65.7569258068624	729
68.8168285030104	737
71.8757319029197	759
74.9336363583872	849
77.9905422214923	1084
81.0464498445604	1458
84.1013595802181	1790
87.1552717813884	2011
90.2081868012224	2176
93.2601049931704	2264
96.3110267109496	2213
99.3609523085471	2136
102.409882140215	2124
105.457816560488	2054
108.504755924126	1966
111.550700586196	1907
114.59565090202	1858
117.639607227167	1785
120.682569917459	1744
123.724539329006	1702
126.765515818159	1747
129.805499741523	1816
132.844491455952	1923
135.882491318585	1880
138.919499686764	1778
141.955516918122	1702
144.990543370519	1693
148.024579402088	1658
151.057625371167	1669
154.08968163639	1669
157.120748556593	1616
160.150826490877	1598
163.179915798583	1595
166.20801683928	1605
169.235129972791	1652
172.26125555917	1745
175.286393958698	1961
178.310545531917	2199
181.333710639569	2104
184.355889642654	1865
187.37708290239	1684
190.397290780238	1598
193.416513637877	1524
196.434751837201	1552
199.452005740364	1596
202.468275709715	1725
205.483562107836	1917
208.497865297537	1904
211.511185641841	1683
214.523523503991	1571
217.534879247459	1528
220.545253235924	1506
223.554645833278	1550
226.563057403632	1565
229.570488311322	1570
232.57693892087	1641
235.582409597048	1600
238.586900704787	1633
241.590412609274	1618
244.592945675871	1631
247.594500270172	1649
250.595076757949	1634
253.594675505196	1654
256.593296878104	1646
259.590941243062	1623
262.587608966669	1647
265.583300415709	1674
268.578015957183	1633
271.571755958256	1694
274.564520786322	1763
277.556310808952	1793
280.547126393914	1918
283.536967909161	2031
286.525835722849	2087
289.513730203314	1980
292.500651719079	1924
295.486600638857	1934
298.471577331539	1892
301.455582166224	2007
304.438615512161	2100
307.420677738813	2067
310.401769215795	2002
313.381890312922	1881
316.361041400181	1808
319.339222847745	1794
322.316435025936	1779
325.292678305285	1830
328.26795305648	1798
331.242259650373	1758
334.215598458017	1687
337.187969850598	1636
340.159374199499	1610
343.129811876267	1557
346.099283252603	1546
349.067788700383	1524
352.03532859166	1510
355.001903298615	1507
357.967513193636	1501
360.932158649242	1477
363.89584003812	1472
366.858557733126	1465
369.820312107254	1488
372.78110353368	1474
375.740932385709	1495
378.699799036818	1442
381.657703860647	1425
384.614647230956	1466
387.570629521684	1401
390.525651106914	1395
393.479712360881	1386
396.432813657953	1368
399.38495537267	1368
402.336137879682	1363
405.286361553827	1378
408.235626770058	1365
411.183933903479	1366
414.131283329328	1382
417.077675423003	1361
420.023110560015	1389
422.967589116038	1430
425.91111146688	1458
428.853677988458	1452
431.795289056857	1403
434.735945048279	1395
437.675646339077	1393
440.614393305703	1396
443.552186324764	1407
446.489025773018	1375
449.424912027289	1303
452.359845464592	1255
455.293826462042	1247
458.226855396876	1203
461.158932646451	1208
464.090058588286	1267
467.020233599971	1426
469.949458059244	1652
472.87773234398	1535
475.805056832125	1332
478.731431901791	1295
481.656857931196	1260
484.581335298659	1289
487.504864382622	1324
490.427445561653	1402
493.349079214422	1439
496.269765719707	1552
499.18950545641	1635
502.108298803538	1817
505.0261461402	2052
507.943047845632	2492
510.85900429916	3278
513.77401588023	5357
516.688082968377	10892
519.601205943262	25610
522.51338518463	42632
525.424621072329	34406
528.334913986338	16366
531.24426430669	7630
534.152672413565	4410
537.060138687206	3205
539.966663507969	2559
542.872247256299	2214
545.776890312758	1938
548.680593057982	1857
551.583355872692	1700
554.485179137732	1625
557.386063234024	1584
560.286008542566	1641
563.185015444464	1657
566.083084320921	1569
568.98021555319	1484
571.876409522661	1488
574.771666610784	1495
577.665987199078	1593
580.559371669177	1920
583.45182040279	2387
586.3433337817	3013
589.233912187775	3017
592.123556002963	2633
595.012265609304	2192
597.900041388897	1862
600.786883723935	1596
603.672792996676	1460
606.557769589466	1373
609.441813884714	1346
612.324926264913	1377
615.207107112618	1376
618.088356810475	1399
620.968675741189	1387
623.848064287525	1377
626.726522832347	1330
629.604051758554	1310
632.480651449143	1280
635.356322287151	1262
638.231064655705	1288
641.104878937987	1272
643.977765517233	1294
646.849724776769	1273
649.720757099947	1281
652.590862870226	1232
655.460042471079	1255
658.328296286072	1245
661.195624698816	1254
664.062028092981	1249
666.927506852302	1264
669.792061360559	1265
672.655692001595	1264
675.51839915931	1253
678.380183217653	1235
681.24104456063	1248
684.100983572289	1225
686.960000636733	1227
689.818096138135	1224
692.675270460696	1245
695.531523988664	1238
698.386857106347	1204
701.241270198105	1219
704.094763648322	1198
706.94733784144	1249
709.798993161956	1232
712.649729994397	1262
715.499548723329	1339
718.348449733379	1431
721.196433409194	1636
724.04350013548	2013
726.889650296959	2570
729.734884278431	3375
732.579202464689	4319
735.422605240587	5298
738.26509299102	5368
741.10666610091	4381
743.947324955199	3073
746.787069938889	2379
749.625901437012	2023
752.463819834611	1683
755.300825516784	1468
758.136918868636	1408
760.97210027533	1364
763.806370122043	1356
766.639728793975	1495
769.472176676357	1719
772.303714154449	1835
775.134341613546	1763
777.964059438943	1435
780.792868015987	1305
783.620767730039	1257
786.447758966478	1235
789.273842110704	1221
792.099017548142	1216
794.92328566424	1222
797.746646844463	1239
800.569101474297	1228
803.390649939234	1201
806.211292624802	1232
809.03102991654	1229
811.849862199998	1259
814.66778986073	1304
817.484813284333	1346
820.300932856395	1287
823.116148962523	1226
825.93046198834	1237
828.743872319475	1196
831.556380341563	1213
834.367986440272	1245
837.178691001252	1232
839.988494410163	1272
842.797397052695	1254
845.605399314528	1256
848.41250158135	1227
851.218704238855	1179
854.024007672738	1169
856.828412268712	1173
859.631918412483	1169
862.434526489746	1177
865.236236886223	1152
868.037049987625	1146
870.836966179664	1155
873.635985848045	1155
876.43410937849	1174
879.231337156698	1156
882.027669568378	1154
884.823106999231	1171
887.617649834962	1159
890.411298461258	1142
893.204053263806	1165
895.995914628291	1166
898.786882940398	1162
901.576958585784	1176
904.366141950107	1178
907.154433419034	1214
909.941833378185	1194
912.728342213211	1203
915.513960309715	1215
918.29868805332	1230
921.082525829612	1257
923.865474024185	1288
926.647533022595	1310
929.428703210407	1447
932.208984973164	1588
934.988378696373	1789
937.766884765555	2001
940.544503566206	2250
943.321235483788	2420
946.097080903759	2491
948.872040211557	2485
951.646113792592	2543
954.419302032264	2531
957.191605315945	2566
959.963024028995	2607
962.73355855673	2870
965.503209284468	3176
968.271976597486	3247
971.039860881048	3016
973.806862520378	2745
976.5729819007	2537
979.338219407185	2398
982.102575424981	2409
984.86605033923	2372
987.628644535031	2294
990.390358397435	2167
993.151192311505	1963
995.911146662234	1794
998.670221834608	1652
1001.42841821358	1532
1004.18573618406	1473
1006.94217613093	1434
1009.69773843905	1398
1012.45242349322	1347
1015.20623167823	1328
1017.95916337883	1312
1020.71121897973	1304
1023.46239886559	1290
1026.21270342106	1271
1028.96213303074	1244
1031.71068807918	1227
1034.45836895091	1185
1037.20517603041	1176
1039.95110970213	1145
1042.69617035045	1139
1045.44035835976	1143
1048.18367411435	1187
1050.92611799852	1230
1053.66769039649	1265
1056.40839169244	1312
1059.14822227053	1354
1061.88718251485	1357
1064.62527280946	1424
1067.36249353837	1468
1070.09884508553	1481
1072.83432783485	1431
1075.56894217022	1350
1078.30268847544	1259
1081.03556713429	1185
1083.76757853047	1125
1086.49872304766	1115
1089.22900106948	1102
1091.9584129795	1133
1094.68695916122	1103
1097.41463999811	1106
1100.14145587358	1073
1102.86740717098	1083
1105.59249427362	1088
1108.31671756474	1095
1111.04007742752	1093
1113.76257424512	1127
1116.4842084006	1136
1119.204980277	1139
1121.92489025725	1199
1124.64393872429	1221
1127.36212606095	1252
1130.07945265002	1253
1132.79591887422	1272
1135.51152511624	1301
1138.22627175866	1338
1140.94015918404	1373
1143.65318777487	1367
1146.36535791355	1322
1149.07666998245	1298
1151.78712436387	1251
1154.49672144002	1239
1157.20546159308	1219
1159.91334520516	1211
1162.62037265827	1219
1165.32654433439	1229
1168.03186061541	1266
1170.73632188319	1283
1173.43992851946	1276
1176.14268090594	1284
1178.84457942426	1311
1181.54562445597	1378
1184.24581638256	1443
1186.94515558545	1560
1189.64364244598	1859
1192.34127734544	2242
1195.03806066501	2916
1197.73399278585	3185
1200.429074089	2747
1203.12330495545	2041
1205.81668576611	1576
1208.50921690181	1371
1211.20089874331	1306
1213.89173167131	1261
1216.5817160664	1239
1219.27085230913	1229
1221.95914077993	1220
1224.64658185921	1212
1227.33317592724	1182
1230.01892336426	1176
1232.7038245504	1184
1235.38787986573	1153
1238.07108969023	1137
1240.75345440379	1140
1243.43497438625	1159
1246.11565001734	1184
1248.79548167671	1201
1251.47446974393	1207
1254.15261459852	1216
1256.82991661985	1242
1259.50637618727	1224
1262.18199368002	1240
1264.85676947723	1239
1267.530703958	1224
1270.20379750129	1267
1272.876050486	1282
1275.54746329095	1317
1278.21803629486	1356
1280.88776987636	1392
1283.556664414	1432
1286.22472028624	1434
1288.89193787145	1458
1291.5583175479	1485
1294.22385969379	1512
1296.88856468721	1657
1299.55243290618	1770
1302.21546472861	1971
1304.87766053232	2211
1307.53902069505	2537
1310.19954559445	3052
1312.85923560804	3582
1315.51809111329	4037
1318.17611248755	4226
1320.8333001081	3815
1323.48965435208	3352
1326.14517559661	3194
1328.79986421862	3106
1331.45372059503	2997
1334.10674510259	2962
1336.75893811802	2885
1339.41030001788	2894
1342.06083117869	2894
1344.71053197683	2891
1347.35940278859	2864
1350.00744399018	2779
1352.65465595768	2763
1355.3010390671	2875
1357.94659369432	2994
1360.59132021515	3200
1363.23521900526	3419
1365.87829044026	3509
1368.52053489564	3252
1371.16195274677	2842
1373.80254436894	2387
1376.44231013733	2156
1379.081250427	2053
1381.71936561295	1912
1384.35665607002	1753
1386.99312217298	1643
1389.62876429649	1578
1392.26358281509	1490
1394.89757810322	1468
1397.53075053523	1462
1400.16310048533	1511
1402.79462832766	1511
1405.42533443621	1566
1408.05521918491	1606
1410.68428294753	1613
1413.31252609777	1572
1415.93994900921	1536
1418.56655205531	1519
1421.19233560943	1473
1423.8173000448	1477
1426.44144573458	1476
1429.06477305178	1529
1431.6872823693	1550
1434.30897405996	1573
1436.92984849643	1572
1439.54990605129	1597
1442.16914709699	1657
1444.78757200588	1721
1447.4051811502	1787
1450.02197490205	1946
1452.63795363345	2094
1455.25311771626	2388
1457.86746752228	2757
1460.48100342315	3204
1463.0937257904	3414
1465.70563499546	3431
1468.31673140964	3115
1470.92701540411	2838
1473.53648734994	2781
1476.1451476181	2870
1478.7529965794	3103
1481.36003460456	3573
1483.96626206417	4044
1486.5716793287	4405
1489.17628676851	4389
1491.78008475383	3744
1494.38307365476	2867
1496.98525384131	2291
1499.58662568334	1974
1502.18718955059	1896
1504.78694581269	1883
1507.38589483914	1912
1509.98403699932	2020
1512.58137266249	2208
1515.17790219778	2512
1517.77362597419	2909
1520.36854436061	3418
1522.9626577258	3987
1525.55596643839	4388
1528.14847086689	4791
1530.74017137969	4885
1533.33106834504	4871
1535.92116213107	4731
1538.51045310578	4485
1541.09894163706	4178
1543.68662809265	3818
1546.27351284017	3428
1548.85959624713	3128
1551.44487868087	2959
1554.02936050864	2827
1556.61304209756	2581
1559.19592381458	2434
1561.77800602657	2248
1564.35928910025	2102
1566.9397734022	1948
1569.51945929888	1841
1572.09834715662	1784
1574.67643734161	1723
1577.25373021993	1663
1579.83022615749	1624
1582.4059255201	1546
1584.98082867343	1491
1587.55493598301	1437
1590.12824781425	1411
1592.70076453242	1409
1595.27248650263	1405
1597.84341408992	1412
1600.41354765913	1428
1602.98288757499	1449
1605.55143420211	1485
1608.11918790494	1551
1610.68614904781	1594
1613.25231799491	1639
1615.8176951103	1710
1618.38228075789	1784
1620.94607530146	1756
1623.50907910467	1734
1626.071292531	1713
1628.63271594383	1747
1631.19334970639	1766
1633.75319418179	1821
1636.31224973296	1881
1638.87051672272	1807
1641.42799551376	1766
1643.9846864686	1652
1646.54058994965	1538
1649.09570631915	1443
1651.65003593923	1388
1654.20357917188	1355
1656.75633637891	1316
1659.30830792203	1312
1661.85949416278	1275
1664.40989546259	1250
1666.95951218271	1225
1669.50834468428	1209
1672.05639332829	1175
1674.60365847558	1139
1677.15014048683	1120
1679.69583972263	1091
1682.24075654337	1093
1684.78489130932	1075
1687.32824438061	1081
1689.87081611722	1094
1692.41260687899	1067
1694.9536170256	1083
1697.49384691661	1040
1700.03329691141	1082
1702.57196736926	1070
1705.10985864927	1050
1707.6469711104	1054
1710.18330511148	1063
1712.71886101116	1050
1715.25363916797	1049
1717.78763994029	1040
1720.32086368636	1027
1722.85331076424	1025
1725.38498153187	1011
1727.91587634704	1015
1730.44599556739	1007
1732.97533955038	1026
1735.50390865339	1022
1738.03170323358	1009
1740.558723648	1005
1743.08497025355	1005
1745.61044340696	1013
1748.13514346481	1017
1750.65907078357	989
1753.1822257195	1002
1755.70460862876	994
1758.22621986733	999
1760.74705979104	977
1763.26712875559	993
1765.7864271165	987
1768.30495522916	993
1770.82271344879	989
1773.33970213048	988
1775.85592162914	998
1778.37137229955	998
1780.88605449632	998
1783.39996857392	1018
1785.91311488667	1016
1788.42549378871	1022
1790.93710563405	989
1793.44795077653	1008
1795.95802956986	983
1798.46734236758	987
1800.97588952306	988
1803.48367138953	991
1805.99068832008	1014
1808.49694066761	999
1811.00242878489	1000
1813.50715302453	976
1816.01111373898	989
1818.51431128054	977
1821.01674600132	970
1823.51841825333	973
1826.01932838839	960
1828.51947675814	968
1831.01886371413	966
1833.51748960767	967
1836.01535478997	965
1838.51245961208	972
1841.00880442485	968
1843.50438957901	961
1845.99921542513	963
1848.49328231359	959
1850.98659059464	953
1853.47914061837	949
1855.9709327347	950
1858.46196729338	948
1860.95224464403	961
1863.44176513607	967
1865.9305291188	953
1868.41853694135	964
1870.90578895266	956
1873.39228550155	971
1875.87802693664	982
1878.36301360642	977
1880.84724585921	955
1883.33072404315	977
1885.81344850625	973
1888.29541959634	978
1890.77663766108	977
1893.25710304798	979
1895.73681610438	996
1898.21577717747	988
1900.69398661427	992
1903.17144476163	974
1905.64815196624	1003
1908.12410857464	995
1910.59931493318	1012
1913.07377138807	1008
1915.54747828535	1004
1918.02043597089	995
1920.4926447904	1002
1922.96410508942	1025
1925.43481721335	1028
1927.90478150738	1017
1930.37399831657	1023
1932.84246798581	1029
1935.31019085981	1016
1937.77716728313	1013
1940.24339760017	1013
1942.70888215513	999
1945.17362129209	992
1947.63761535492	971
1950.10086468735	978
1952.56336963295	982
1955.0251305351	984
1957.48614773702	963
1959.94642158179	976
1962.40595241228	982
1964.86474057122	960
1967.32278640117	962
1969.7800902445	967
1972.23665244346	966
1974.69247334008	959
1977.14755327625	969
1979.6018925937	951
1982.05549163395	953
1984.50835073841	946
1986.96047024828	955
1989.41185050459	960
1991.86249184824	959
1994.3123946199	947
1996.76155916013	950
1999.2099858093	952
2001.65767490758	959
2004.10462679502	955
2006.55084181147	958
2008.99632029662	950
2011.44106258999	948
2013.88506903091	963
2016.32833995857	958
2018.77087571198	965
2021.21267662996	953
2023.65374305119	964
2026.09407531416	950
2028.53367375719	977
2030.97253871842	971
2033.41067053586	975
2035.84806954729	973
2038.28473609036	995
2040.72067050254	988
2043.15587312112	993
2045.59034428322	1013
2048.02408432579	1019
2050.45709358561	1042
2052.88937239928	1018
2055.32092110325	1008
2057.75174003376	1000
2060.18182952691	996
2062.61118991862	1013
2065.03982154461	1023
2067.46772474047	1009
2069.89489984159	1009
2072.3213471832	1016
2074.74706710033	1019
2077.17205992787	1023
2079.59632600052	1028
2082.01986565282	1045
2084.44267921911	1030
2086.86476703357	1042
2089.28612943021	1039
2091.70676674286	1044
2094.1266793052	1045
2096.54586745068	1034
2098.96433151263	1031
2101.38207182418	1055
2103.79908871829	1050
2106.21538252774	1046
2108.63095358515	1057
2111.04580222295	1080
2113.4599287734	1107
2115.87333356858	1079
2118.28601694041	1059
2120.69797922062	1046
2123.10922074076	1019
2125.51974183222	1026
2127.92954282621	1033
2130.33862405376	1008
2132.74698584572	1028
2135.15462853276	1001
2137.5615524454	1015
2139.96775791396	1015
2142.37324526859	993
2144.77801483926	991
2147.18206695578	992
2149.58540194775	1009
2151.98802014463	986
2154.38992187569	987
2156.79110747	972
2159.19157725649	968
2161.59133156389	984
2163.99037072076	985
2166.38869505548	983
2168.78630489625	960
2171.18320057111	963
2173.5793824079	962
2175.97485073429	971
2178.36960587778	962
2180.76364816568	971
2183.15697792513	972
2185.54959548309	966
2187.94150116635	960
2190.3326953015	980
2192.72317821498	978
2195.11295023302	979
2197.50201168171	988
2199.89036288693	979
2202.27800417439	988
2204.66493586963	999
2207.05115829801	996
2209.43667178469	1015
2211.82147665468	1018
2214.20557323279	1028
2216.58896184368	1003
2218.97164281178	1022
2221.3536164614	1043
2223.73488311663	1023
2226.1154431014	1028
2228.49529673943	1031
2230.87444435432	1020
2233.25288626943	1003
2235.63062280798	1001
2238.007654293	987
2240.38398104731	996
2242.75960339361	991
2245.13452165436	998
2247.50873615189	995
2249.88224720832	996
2252.25505514559	996
2254.62716028547	1021
2256.99856294955	1035
2259.36926345924	1036
2261.73926213577	1050
2264.10855930017	1059
2266.47715527334	1082
2268.84505037593	1076
2271.21224492847	1091
2273.57873925127	1088
2275.94453366449	1093
2278.30962848809	1123
2280.67402404185	1104
2283.03772064537	1122
2285.40071861808	1111
2287.76301827922	1102
2290.12461994785	1105
2292.48552394285	1112
2294.84573058292	1087
2297.20524018658	1086
2299.56405307216	1048
2301.92216955783	1083
2304.27958996155	1061
2306.63631460112	1051
2308.99234379415	1005
2311.34767785809	1018
2313.70231711017	997
2316.05626186746	996
2318.40951244685	1024
2320.76206916506	994
2323.11393233859	984
2325.4651022838	992
2327.81557931685	984
2330.16536375372	976
2332.5144559102	973
2334.86285610192	970
2337.2105646443	978
2339.55758185261	947
2341.90390804192	963
2344.2495435271	945
2346.59448862288	963
2348.93874364378	968
2351.28230890414	954
2353.62518471812	956
2355.96737139972	967
2358.30886926271	958
2360.64967862074	952
2362.98979978721	963
2365.3292330754	953
2367.66797879836	960
2370.00603726899	972
2372.3434088	967
2374.6800937039	970
2377.01609229304	971
2379.35140487958	964
2381.6860317755	979
2384.01997329259	977
2386.35322974247	991
2388.68580143655	973
2391.0176886861	980
2393.34889180219	995
2395.67941109568	992
2398.00924687729	976
2400.33839945753	993
2402.66686914673	986
2404.99465625506	979
2407.32176109248	981
2409.64818396879	985
2411.97392519358	992
2414.29898507628	988
2416.62336392614	994
2418.9470620522	991
2421.27007976336	999
2423.5924173683	1003
2425.91407517553	1002
2428.23505349338	992
2430.55535262999	1002
2432.87497289334	1004
2435.19391459119	984
2437.51217803116	996
2439.82976352064	987
2442.14667136688	1007
2444.46290187693	1011
2446.77845535765	1001
2449.09333211573	990
2451.40753245767	997
2453.72105668978	996
2456.03390511821	1023
2458.3460780489	1018
2460.65757578764	1019
2462.96839864001	1000
2465.2785469114	1003
2467.58802090706	1013
2469.89682093201	999
2472.20494729111	1003
2474.51240028905	1020
2476.8191802303	1009
2479.12528741919	1020
2481.43072215984	1025
2483.73548475618	1020
2486.03957551199	1015
2488.34299473085	1011
2490.64574271613	1012
2492.94781977107	1029
2495.2492261987	1025
2497.54996230185	1014
2499.85002838319	1025
2502.14942474521	1014
2504.44815169022	1025
2506.74620952032	1020
2509.04359853744	1030
2511.34031904335	1020
2513.63637133961	994
2515.93175572761	1030
2518.22647250855	999
2520.52052198346	987
2522.81390445317	993
2525.10662021834	972
2527.39866957943	983
2529.69005283676	987
2531.98077029043	985
2534.27082224035	976
2536.56020898628	991
2538.84893082778	967
2541.13698806422	984
2543.42438099481	986
2545.71110991855	967
2547.99717513428	980
2550.28257694065	978
2552.56731563613	960
2554.851391519	977
2557.13480488736	986
2559.41755603913	963
2561.69964527206	975
2563.98107288369	962
2566.26183917141	977
2568.54194443239	968
2570.82138896367	982
2573.10017306204	973
2575.37829702417	971
2577.65576114652	986
2579.93256572536	977
2582.20871105681	971
2584.48419743676	979
2586.75902516095	976
2589.03319452496	982
2591.30670582413	997
2593.57955935366	1007
2595.85175540855	1008
2598.12329428364	996
2600.39417627356	1001
2602.66440167278	1012
2604.93397077557	1018
2607.20288387604	1012
2609.4711412681	1021
2611.73874324549	1035
2614.00569010175	1024
2616.27198213026	1051
2618.53761962422	1033
2620.80260287662	1035
2623.0669321803	1038
2625.3306078279	1037
2627.59363011189	1070
2629.85599932454	1063
2632.11771575796	1070
2634.37877970408	1079
2636.63919145462	1086
2638.89895130115	1086
2641.15805953504	1092
2643.41651644749	1090
2645.67432232951	1082
2647.93147747195	1104
2650.18798216543	1088
2652.44383670045	1109
2654.69904136729	1112
2656.95359645606	1099
2659.20750225669	1112
2661.46075905892	1136
2663.71336715233	1100
2665.9653268263	1113
2668.21663837004	1108
2670.46730207257	1119
2672.71731822273	1118
2674.9666871092	1084
2677.21540902044	1111
2679.46348424478	1095
2681.71091307033	1105
2683.95769578503	1108
2686.20383267665	1111
2688.44932403277	1116
2690.69417014079	1099
2692.93837128793	1133
2695.18192776123	1087
2697.42483984757	1089
2699.66710783361	1089
2701.90873200586	1088
2704.14971265065	1104
2706.39005005411	1078
2708.62974450221	1091
2710.86879628073	1079
2713.10720567527	1093
2715.34497297127	1088
2717.58209845396	1084
2719.8185824084	1101
2722.0544251195	1077
2724.28962687194	1130
2726.52418795026	1122
2728.7581086388	1115
2730.99138922174	1095
2733.22402998306	1070
2735.45603120658	1090
2737.68739317591	1105
2739.91811617453	1079
2742.14820048571	1061
2744.37764639253	1049
2746.60645417791	1061
2748.83462412459	1040
2751.06215651513	1045
2753.28905163192	1043
2755.51530975715	1048
2757.74093117284	1053
2759.96591616085	1066
2762.19026500283	1057
2764.41397798029	1057
2766.63705537452	1067
2768.85949746666	1045
2771.08130453767	1074
2773.30247686833	1075
2775.52301473922	1052
2777.74291843079	1082
2779.96218822325	1072
2782.1808243967	1079
2784.39882723099	1078
2786.61619700586	1072
2788.83293400084	1079
2791.04903849527	1075
2793.26451076835	1079
2795.47935109907	1095
2797.69355976626	1071
2799.90713704855	1074
2802.12008322443	1103
2804.33239857219	1087
2806.54408336993	1083
2808.75513789562	1073
2810.96556242699	1086
2813.17535724165	1072
2815.384522617	1064
2817.59305883027	1081
2819.80096615853	1080
2822.00824487864	1083
2824.21489526733	1068
2826.42091760112	1073
2828.62631215635	1080
2830.8310792092	1102
2833.03521903568	1103
2835.23873191161	1109
2837.44161811264	1140
2839.64387791424	1135
2841.8455115917	1149
2844.04651942017	1154
2846.24690167456	1185
2848.44665862967	1164
2850.64579056008	1182
2852.84429774021	1180
2855.04218044432	1169
2857.23943894648	1205
2859.43607352057	1164
2861.63208444032	1172
2863.82747197928	1189
2866.02223641082	1175
2868.21637800812	1175
2870.40989704423	1163
2872.60279379199	1180
2874.79506852407	1167
2876.98672151296	1197
2879.17775303101	1182
2881.36816335035	1195
2883.55795274296	1193
2885.74712148066	1212
2887.93566983506	1239
2890.12359807763	1232
2892.31090647965	1219
2894.49759531223	1244
2896.6836648463	1234
2898.86911535263	1286
2901.0539471018	1264
2903.23816036423	1285
2905.42175541018	1281
2907.6047325097	1274
2909.78709193269	1262
2911.96883394889	1259
2914.14995882783	1226
2916.33046683891	1220
2918.51035825132	1200
2920.68963333411	1194
2922.86829235613	1174
2925.04633558608	1175
2927.22376329247	1162
2929.40057574365	1140
2931.5767732078	1122
2933.75235595292	1143
2935.92732424684	1136
2938.10167835722	1129
2940.27541855155	1118
2942.44854509713	1113
2944.62105826113	1113
2946.79295831052	1103
2948.96424551209	1095
2951.13492013248	1112
2953.30498243815	1097
2955.4744326954	1105
2957.64327117034	1092
2959.81149812892	1100
2961.97911383692	1079
2964.14611855996	1089
2966.31251256345	1106
2968.47829611269	1086
2970.64346947276	1073
2972.8080329086	1094
2974.97198668496	1067
2977.13533106643	1069
2979.29806631743	1073
2981.46019270221	1085
2983.62171048486	1085
2985.78261992928	1074
2987.94292129921	1073
2990.10261485823	1070
2992.26170086974	1056
2994.42017959699	1064
2996.57805130302	1056
2998.73531625075	1046
3000.8919747029	1080
3003.04802692203	1088
3005.20347317054	1067
3007.35831371065	1085
3009.51254880442	1069
3011.66617871373	1084
3013.8192037003	1078
3015.9716240257	1083
3018.12343995131	1067
3020.27465173833	1080
3022.42525964783	1064
3024.57526394068	1075
3026.7246648776	1063
3028.87346271916	1067
3031.02165772571	1082
3033.16925015749	1075
3035.31624027453	1066
3037.46262833673	1082
3039.60841460378	1081
3041.75359933527	1090
3043.89818279054	1091
3046.04216522884	1084
3048.1855469092	1099
3050.32832809052	1093
3052.4705090315	1122
3054.61208999072	1123
3056.75307122655	1141
3058.89345299721	1144
3061.03323556078	1157
3063.17241917513	1164
3065.311004098	1173
3067.44899058694	1162
3069.58637889937	1183
3071.7231692925	1201
3073.85936202342	1175
3075.99495734901	1179
3078.12995552604	1177
3080.26435681105	1192
3082.39816146049	1174
3084.53136973058	1155
3086.66398187741	1169
3088.79599815691	1144
3090.92741882484	1122
3093.05824413677	1120
3095.18847434815	1129
3097.31810971425	1095
3099.44715049016	1085
3101.57559693082	1074
3103.70344929103	1080
3105.83070782539	1060
3107.95737278835	1063
3110.08344443421	1040
3112.20892301709	1024
3114.33380879097	1046
3116.45810200965	1016
3118.58180292675	1026
3120.70491179578	1027
3122.82742887005	1005
3124.94935440272	986
3127.07068864678	999
3129.19143185506	1009
3131.31158428025	977
3133.43114617485	986
3135.55011779122	976
3137.66849938155	972
3139.78629119787	980
3141.90349349205	967
3144.0201065158	984
3146.13613052067	975
3148.25156575806	972
3150.36641247918	964
3152.48067093512	972
3154.59434137678	963
3156.70742405491	971
3158.81991922011	968
3160.93182712281	953
3163.04314801328	957
3165.15388214164	944
3167.26402975783	954
3169.37359111167	948
3171.48256645279	957
3173.59095603066	949
3175.69876009462	953
3177.80597889382	948
3179.91261267727	942
3182.01866169382	929
3184.12412619216	946
3186.22900642082	954
3188.33330262818	952
3190.43701506245	948
3192.5401439717	942
3194.64268960383	946
3196.74465220658	943
3198.84603202755	929
3200.94682931418	948
3203.04704431373	946
3205.14667727332	938
3207.24572843993	921
3209.34419806037	939
3211.44208638128	939
3213.53939364916	934
3215.63612011035	932
3217.73226601104	941
3219.82783159727	937
3221.9228171149	943
3224.01722280966	946
3226.11104892711	938
3228.20429571266	938
3230.29696341158	953
3232.38905226896	951
3234.48056252974	955
3236.57149443873	938
3238.66184824057	931
3240.75162417973	944
3242.84082250056	956
3244.92944344722	955
3247.01748726375	944
3249.10495419402	943
3251.19184448174	947
3253.27815837048	937
3255.36389610367	941
3257.44905792454	951
3259.53364407621	943
3261.61765480165	948
3263.70109034365	948
3265.78395094486	929
3267.86623684778	927
3269.94794829476	928
3272.029085528	924
3274.10964878954	929
3276.18963832126	935
3278.26905436493	927
3280.34789716212	923
3282.42616695429	940
3284.5038639827	931
3286.58098848851	937
3288.65754071271	937
3290.73352089612	917
3292.80892927945	926
3294.88376610323	912
3296.95803160784	920
3299.03172603354	910
3301.10484962039	936
3303.17740260835	923
3305.24938523721	916
3307.32079774661	923
3309.39164037604	914
3311.46191336485	923
3313.53161695223	932
3315.60075137723	920
3317.66931687875	915
3319.73731369554	922
3321.80474206621	936
3323.87160222921	920
3325.93789442284	909
3328.00361888528	931
3330.06877585452	909
3332.13336556845	934
3334.19738826478	916
3336.26084418107	907
3338.32373355476	925
3340.38605662313	917
3342.4478136233	928
3344.50900479228	920
3346.56963036689	919
3348.62969058383	919
3350.68918567966	906
3352.74811589077	928
3354.80648145343	936
3356.86428260374	925
3358.92151957769	937
3360.97819261108	924
3363.0343019396	926
3365.08984779878	935
3367.14483042403	921
3369.19925005056	932
3371.2531069135	936
3373.3064012478	925
3375.35913328827	937
3377.41130326959	916
3379.46291142628	927
3381.51395799271	920
3383.56444320315	936
3385.61436729168	926
3387.66373049226	934
3389.7125330387	927
3391.76077516467	930
3393.80845710371	937
3395.85557908919	929
3397.90214135436	922
3399.94814413233	927
3401.99358765605	932
3404.03847215834	927
3406.08279787188	930
3408.12656502921	918
3410.16977386273	935
3412.21242460469	926
3414.2545174872	918
3416.29605274224	933
3418.33703060165	924
3420.37745129711	919
3422.41731506019	935
3424.4566221223	919
3426.49537271471	936
3428.53356706855	935
3430.57120541484	918
3432.60828798442	937
3434.64481500801	924
3436.68078671619	941
3438.7162033394	930
3440.75106510796	936
3442.78537225201	934
3444.81912500159	923
3446.85232358659	945
3448.88496823676	936
3450.91705918171	919
3452.94859665093	932
3454.97958087374	933
3457.01001207935	916
3459.03989049684	927
3461.06921635512	927
3463.09798988299	932
3465.12621130911	922
3467.15388086199	930
3469.18099877002	927
3471.20756526146	929
3473.23358056441	907
3475.25904490685	928
3477.28395851662	928
3479.30832162144	926
3481.33213444887	912
3483.35539722635	916
3485.37811018119	932
3487.40027354055	932
3489.42188753147	924
3491.44295238084	931
3493.46346831545	913
3495.48343556192	934
3497.50285434675	915
3499.5217248963	914
3501.54004743682	917
3503.5578221944	930
3505.575049395	916
3507.59172926448	927
3509.60786202852	936
3511.6234479127	921
3513.63848714245	924
3515.6529799431	904
3517.6669265398	919
3519.6803271576	915
3521.69318202142	929
3523.70549135604	928
3525.7172553861	921
3527.72847433614	930
3529.73914843052	930
3531.74927789353	924
3533.75886294928	919
3535.76790382177	916
3537.77640073487	923
3539.78435391232	918
3541.79176357773	928
3543.79862995457	921
3545.80495326621	922
3547.81073373585	933
3549.8159715866	910
3551.82066704143	934
3553.82482032315	924
3555.82843165449	906
3557.83150125802	936
3559.83402935619	939
3561.83601617134	927
3563.83746192565	916
3565.83836684119	923
3567.83873113992	933
3569.83855504364	929
3571.83783877404	927
3573.83658255268	927
3575.83478660102	923
3577.83245114033	926
3579.82957639182	941
3581.82616257654	933
3583.82220991543	916
3585.81771862929	930
3587.81268893881	945
3589.80712106453	937
3591.80101522689	944
3593.7943716462	940
3595.78719054264	912
3597.77947213627	934
3599.77121664702	927
3601.7624242947	934
3603.75309529901	946
3605.74322987949	943
3607.73282825559	942
3609.72189064663	944
3611.71041727179	936
3613.69840835016	941
3615.68586410068	935
3617.67278474216	914
3619.65917049333	945
3621.64502157275	945
3623.63033819888	939
3625.61512059006	949
3627.59936896452	946
3629.58308354034	934
3631.56626453549	938
3633.54891216784	944
3635.5310266551	936
3637.5126082149	933
3639.49365706472	943
3641.47417342194	940
3643.4541575038	946
3645.43360952742	933
3647.41252970985	930
3649.39091826795	935
3651.3687754185	949
3653.34610137816	936
3655.32289636346	944
3657.29916059082	942
3659.27489427653	926
3661.25009763677	934
3663.22477088762	937
3665.198914245	931
3667.17252792476	933
3669.14561214258	924
3671.11816711408	931
3673.09019305472	948
3675.06169017986	921
3677.03265870474	933
3679.00309884449	930
3680.9730108141	930
3682.94239482848	930
3684.9112511024	944
3686.87957985053	931
3688.8473812874	923
3690.81465562745	919
3692.78140308499	923
3694.74762387422	919
3696.71331820923	917
3698.67848630398	939
3700.64312837234	935
3702.60724462804	933
3704.57083528471	917
3706.53390055586	921
3708.49644065491	935
3710.45845579512	918
3712.41994618969	921
3714.38091205166	929
3716.341353594	915
3718.30127102952	931
3720.26066457096	927
3722.21953443094	926
3724.17788082194	908
3726.13570395635	914
3728.09300404647	935
3730.04978130443	922
3732.0060359423	935
3733.96176817203	925
3735.91697820544	919
3737.87166625426	923
3739.8258325301	925
3741.77947724445	915
3743.73260060871	914
3745.68520283416	916
3747.63728413197	919
3749.5888447132	935
3751.53988478882	928
3753.49040456964	918
3755.44040426642	926
3757.38988408979	935
3759.33884425025	916
3761.28728495822	906
3763.23520642401	930
3765.1826088578	925
3767.12949246968	916
3769.07585746963	927
3771.02170406753	932
3772.96703247315	926
3774.91184289612	928
3776.85613554601	931
3778.79991063228	935
3780.74316836424	931
3782.68590895115	917
3784.62813260212	920
