# EIG2DOS: Utility for SIESTA to obtain the electronic density of states
#  E. Artacho, Apr 1999, A. Garcia, Apr 2012
# ------------------------------------------
# Eigenvalues read from mos2-2graphene.EIG
# Using smearing parameter:   0.100
# Using    700 points in energy range
# Selected bands: 1 to: 1956
# Emin, emax in file for selected band(s):    -23.1315800    153.3265700
# Nbands, Nspin, Nk   =   1956     1    13
# E_F                 =    -4.9112 eV --> (shifted to ZERO)
# Broadening          =     0.1000 eV
#
#        E            N(up)  (=)   N(down)         Ntot
    -10.000000      5.436431      5.436431     10.872862
     -9.971388      4.433152      4.433152      8.866303
     -9.942775      4.000030      4.000030      8.000059
     -9.914163      4.165926      4.165926      8.331851
     -9.885551      4.837185      4.837185      9.674369
     -9.856938      5.860132      5.860132     11.720265
     -9.828326      7.065542      7.065542     14.131085
     -9.799714      8.278376      8.278376     16.556753
     -9.771102      9.302965      9.302965     18.605930
     -9.742489      9.917169      9.917169     19.834339
     -9.713877      9.916259      9.916259     19.832517
     -9.685265      9.203971      9.203971     18.407943
     -9.656652      7.863905      7.863905     15.727809
     -9.628040      6.146255      6.146255     12.292510
     -9.599428      4.380121      4.380121      8.760241
     -9.570815      2.877402      2.877402      5.754804
     -9.542203      1.881177      1.881177      3.762353
     -9.513591      1.567393      1.567393      3.134787
     -9.484979      2.068800      2.068800      4.137601
     -9.456366      3.465914      3.465914      6.931828
     -9.427754      5.711653      5.711653     11.423306
     -9.399142      8.531488      8.531488     17.062976
     -9.370529     11.400550     11.400550     22.801099
     -9.341917     13.666594     13.666594     27.333187
     -9.313305     14.782714     14.782714     29.565428
     -9.284692     14.529487     14.529487     29.058973
     -9.256080     13.105065     13.105065     26.210129
     -9.227468     11.035412     11.035412     22.070825
     -9.198856      8.955092      8.955092     17.910184
     -9.170243      7.369760      7.369760     14.739520
     -9.141631      6.501865      6.501865     13.003730
     -9.113019      6.268319      6.268319     12.536639
     -9.084406      6.387487      6.387487     12.774973
     -9.055794      6.567715      6.567715     13.135430
     -9.027182      6.686446      6.686446     13.372892
     -8.998569      6.857977      6.857977     13.715954
     -8.969957      7.339660      7.339660     14.679320
     -8.941345      8.325799      8.325799     16.651598
     -8.912732      9.768522      9.768522     19.537045
     -8.884120     11.364674     11.364674     22.729348
     -8.855508     12.724161     12.724161     25.448322
     -8.826896     13.588563     13.588563     27.177127
     -8.798283     13.942757     13.942757     27.885513
     -8.769671     13.960421     13.960421     27.920842
     -8.741059     13.840148     13.840148     27.680296
     -8.712446     13.654601     13.654601     27.309201
     -8.683834     13.321641     13.321641     26.643283
     -8.655222     12.706274     12.706274     25.412548
     -8.626609     11.757285     11.757285     23.514570
     -8.597997     10.576691     10.576691     21.153382
     -8.569385      9.394877      9.394877     18.789755
     -8.540773      8.486258      8.486258     16.972517
     -8.512160      8.073596      8.073596     16.147192
     -8.483548      8.254780      8.254780     16.509561
     -8.454936      8.967908      8.967908     17.935816
     -8.426323     10.000241     10.000241     20.000481
     -8.397711     11.037284     11.037284     22.074567
     -8.369099     11.738252     11.738252     23.476504
     -8.340486     11.830319     11.830319     23.660638
     -8.311874     11.218463     11.218463     22.436927
     -8.283262     10.072180     10.072180     20.144359
     -8.254649      8.816337      8.816337     17.632675
     -8.226037      7.993755      7.993755     15.987509
     -8.197425      8.047194      8.047194     16.094388
     -8.168813      9.111840      9.111840     18.223681
     -8.140200     10.919710     10.919710     21.839421
     -8.111588     12.899830     12.899830     25.799659
     -8.082976     14.461805     14.461805     28.923610
     -8.054363     15.303536     15.303536     30.607071
     -8.025751     15.530657     15.530657     31.061315
     -7.997139     15.498496     15.498496     30.996992
     -7.968526     15.494775     15.494775     30.989550
     -7.939914     15.499719     15.499719     30.999438
     -7.911302     15.195404     15.195404     30.390808
     -7.882690     14.210284     14.210284     28.420568
     -7.854077     12.424579     12.424579     24.849159
     -7.825465     10.123470     10.123470     20.246940
     -7.796853      7.880111      7.880111     15.760223
     -7.768240      6.238374      6.238374     12.476748
     -7.739628      5.425162      5.425162     10.850324
     -7.711016      5.301672      5.301672     10.603343
     -7.682403      5.561846      5.561846     11.123693
     -7.653791      5.996634      5.996634     11.993269
     -7.625179      6.628113      6.628113     13.256225
     -7.596567      7.647079      7.647079     15.294158
     -7.567954      9.227049      9.227049     18.454099
     -7.539342     11.350114     11.350114     22.700228
     -7.510730     13.753705     13.753705     27.507410
     -7.482117     16.022671     16.022671     32.045343
     -7.453505     17.760694     17.760694     35.521388
     -7.424893     18.730186     18.730186     37.460373
     -7.396280     18.882166     18.882166     37.764332
     -7.367668     18.289955     18.289955     36.579910
     -7.339056     17.068325     17.068325     34.136651
     -7.310443     15.338031     15.338031     30.676061
     -7.281831     13.232136     13.232136     26.464271
     -7.253219     10.915099     10.915099     21.830199
     -7.224607      8.598688      8.598688     17.197377
     -7.195994      6.550451      6.550451     13.100902
     -7.167382      5.084950      5.084950     10.169900
     -7.138770      4.514454      4.514454      9.028908
     -7.110157      5.047060      5.047060     10.094121
     -7.081545      6.675519      6.675519     13.351039
     -7.052933      9.143220      9.143220     18.286440
     -7.024320     12.029131     12.029131     24.058262
     -6.995708     14.893482     14.893482     29.786964
     -6.967096     17.388425     17.388425     34.776851
     -6.938484     19.297868     19.297868     38.595735
     -6.909871     20.534981     20.534981     41.069962
     -6.881259     21.125658     21.125658     42.251315
     -6.852647     21.184921     21.184921     42.369841
     -6.824034     20.894301     20.894301     41.788603
     -6.795422     20.476746     20.476746     40.953493
     -6.766810     20.134211     20.134211     40.268421
     -6.738197     19.936824     19.936824     39.873649
     -6.709585     19.743289     19.743289     39.486578
     -6.680973     19.264937     19.264937     38.529873
     -6.652361     18.277899     18.277899     36.555797
     -6.623748     16.839381     16.839381     33.678761
     -6.595136     15.337676     15.337676     30.675351
     -6.566524     14.335621     14.335621     28.671242
     -6.537911     14.324327     14.324327     28.648654
     -6.509299     15.537635     15.537635     31.075270
     -6.480687     17.890394     17.890394     35.780788
     -6.452074     21.022224     21.022224     42.044449
     -6.423462     24.412974     24.412974     48.825949
     -6.394850     27.538120     27.538120     55.076240
     -6.366237     30.017192     30.017192     60.034384
     -6.337625     31.694909     31.694909     63.389818
     -6.309013     32.617866     32.617866     65.235731
     -6.280401     32.951451     32.951451     65.902902
     -6.251788     32.956483     32.956483     65.912965
     -6.223176     33.068466     33.068466     66.136932
     -6.194564     33.918480     33.918480     67.836959
     -6.165951     36.099316     36.099316     72.198633
     -6.137339     39.770053     39.770053     79.540106
     -6.108727     44.469761     44.469761     88.939523
     -6.080114     49.361802     49.361802     98.723603
     -6.051502     53.698615     53.698615    107.397229
     -6.022890     57.111095     57.111095    114.222190
     -5.994278     59.572158     59.572158    119.144315
     -5.965665     61.213708     61.213708    122.427416
     -5.937053     62.213846     62.213846    124.427693
     -5.908441     62.754595     62.754595    125.509190
     -5.879828     62.927466     62.927466    125.854932
     -5.851216     62.611046     62.611046    125.222093
     -5.822604     61.505846     61.505846    123.011692
     -5.793991     59.389285     59.389285    118.778570
     -5.765379     56.396628     56.396628    112.793256
     -5.736767     53.086275     53.086275    106.172549
     -5.708155     50.212228     50.212228    100.424456
     -5.679542     48.299388     48.299388     96.598776
     -5.650930     47.268234     47.268234     94.536469
     -5.622318     46.432259     46.432259     92.864518
     -5.593705     44.965245     44.965245     89.930489
     -5.565093     42.490138     42.490138     84.980276
     -5.536481     39.309336     39.309336     78.618673
     -5.507868     36.177891     36.177891     72.355782
     -5.479256     33.912572     33.912572     67.825144
     -5.450644     33.091522     33.091522     66.183043
     -5.422031     33.852701     33.852701     67.705402
     -5.393419     35.755278     35.755278     71.510556
     -5.364807     37.813575     37.813575     75.627151
     -5.336195     38.837982     38.837982     77.675963
     -5.307582     38.001233     38.001233     76.002465
     -5.278970     35.309192     35.309192     70.618384
     -5.250358     31.655127     31.655127     63.310254
     -5.221745     28.385402     28.385402     56.770804
     -5.193133     26.606413     26.606413     53.212826
     -5.164521     26.624157     26.624157     53.248314
     -5.135908     27.833865     27.833865     55.667730
     -5.107296     29.108681     29.108681     58.217362
     -5.078684     29.444396     29.444396     58.888793
     -5.050072     28.476612     28.476612     56.953223
     -5.021459     26.582885     26.582885     53.165771
     -4.992847     24.586457     24.586457     49.172913
     -4.964235     23.365627     23.365627     46.731255
     -4.935622     23.639682     23.639682     47.279364
     -4.907010     25.888333     25.888333     51.776665
     -4.878398     30.212399     30.212399     60.424797
     -4.849785     36.181713     36.181713     72.363426
     -4.821173     42.943231     42.943231     85.886463
     -4.792561     49.633315     49.633315     99.266630
     -4.763948     55.706018     55.706018    111.412036
     -4.735336     60.810331     60.810331    121.620662
     -4.706724     64.398633     64.398633    128.797265
     -4.678112     65.630158     65.630158    131.260316
     -4.649499     63.823634     63.823634    127.647267
     -4.620887     59.074668     59.074668    118.149336
     -4.592275     52.439020     52.439020    104.878041
     -4.563662     45.495664     45.495664     90.991328
     -4.535050     39.644017     39.644017     79.288034
     -4.506438     35.628391     35.628391     71.256782
     -4.477825     33.506264     33.506264     67.012527
     -4.449213     32.933872     32.933872     65.867744
     -4.420601     33.481746     33.481746     66.963492
     -4.391989     34.736614     34.736614     69.473228
     -4.363376     36.163686     36.163686     72.327373
     -4.334764     36.990234     36.990234     73.980468
     -4.306152     36.431442     36.431442     72.862885
     -4.277539     34.231817     34.231817     68.463633
     -4.248927     31.074234     31.074234     62.148468
     -4.220315     28.430651     28.430651     56.861301
     -4.191702     27.886504     27.886504     55.773008
     -4.163090     30.360466     30.360466     60.720932
     -4.134478     35.650314     35.650314     71.300628
     -4.105866     42.514995     42.514995     85.029991
     -4.077253     49.259547     49.259547     98.519094
     -4.048641     54.529897     54.529897    109.059794
     -4.020029     57.821723     57.821723    115.643447
     -3.991416     59.341360     59.341360    118.682720
     -3.962804     59.395953     59.395953    118.791906
     -3.934192     57.955111     57.955111    115.910221
     -3.905579     54.845929     54.845929    109.691858
     -3.876967     50.331130     50.331130    100.662260
     -3.848355     45.360386     45.360386     90.720773
     -3.819742     41.123144     41.123144     82.246287
     -3.791130     38.298185     38.298185     76.596369
     -3.762518     36.723478     36.723478     73.446957
     -3.733906     35.749949     35.749949     71.499898
     -3.705293     34.856800     34.856800     69.713599
     -3.676681     33.957100     33.957100     67.914199
     -3.648069     33.257370     33.257370     66.514739
     -3.619456     32.946941     32.946941     65.893882
     -3.590844     32.996182     32.996182     65.992365
     -3.562232     33.152307     33.152307     66.304615
     -3.533619     33.113670     33.113670     66.227340
     -3.505007     32.781069     32.781069     65.562137
     -3.476395     32.377253     32.377253     64.754506
     -3.447783     32.280523     32.280523     64.561046
     -3.419170     32.684346     32.684346     65.368693
     -3.390558     33.383075     33.383075     66.766150
     -3.361946     33.872082     33.872082     67.744163
     -3.333333     33.682870     33.682870     67.365740
     -3.304721     32.703591     32.703591     65.407181
     -3.276109     31.246126     31.246126     62.492251
     -3.247496     29.793382     29.793382     59.586764
     -3.218884     28.629715     28.629715     57.259430
     -3.190272     27.706824     27.706824     55.413647
     -3.161660     26.893331     26.893331     53.786661
     -3.133047     26.330827     26.330827     52.661654
     -3.104435     26.461175     26.461175     52.922350
     -3.075823     27.646603     27.646603     55.293207
     -3.047210     29.775891     29.775891     59.551782
     -3.018598     32.259380     32.259380     64.518760
     -2.989986     34.378437     34.378437     68.756873
     -2.961373     35.636944     35.636944     71.273888
     -2.932761     35.882526     35.882526     71.765052
     -2.904149     35.243750     35.243750     70.487501
     -2.875536     34.014542     34.014542     68.029083
     -2.846924     32.546376     32.546376     65.092751
     -2.818312     31.168934     31.168934     62.337869
     -2.789700     30.152582     30.152582     60.305164
     -2.761087     29.693832     29.693832     59.387665
     -2.732475     29.898531     29.898531     59.797062
     -2.703863     30.775893     30.775893     61.551785
     -2.675250     32.254620     32.254620     64.509241
     -2.646638     34.181189     34.181189     68.362379
     -2.618026     36.268020     36.268020     72.536041
     -2.589413     38.046854     38.046854     76.093709
     -2.560801     38.933895     38.933895     77.867789
     -2.532189     38.454578     38.454578     76.909156
     -2.503577     36.548301     36.548301     73.096603
     -2.474964     33.756229     33.756229     67.512459
     -2.446352     31.088211     31.088211     62.176422
     -2.417740     29.551437     29.551437     59.102875
     -2.389127     29.611178     29.611178     59.222356
     -2.360515     30.965970     30.965970     61.931940
     -2.331903     32.802335     32.802335     65.604670
     -2.303290     34.335061     34.335061     68.670122
     -2.274678     35.246811     35.246811     70.493621
     -2.246066     35.726514     35.726514     71.453029
     -2.217454     36.087784     36.087784     72.175569
     -2.188841     36.281400     36.281400     72.562800
     -2.160229     35.770382     35.770382     71.540764
     -2.131617     33.976670     33.976670     67.953339
     -2.103004     30.944314     30.944314     61.888629
     -2.074392     27.555578     27.555578     55.111155
     -2.045780     25.010222     25.010222     50.020444
     -2.017167     24.005750     24.005750     48.011500
     -1.988555     24.362948     24.362948     48.725895
     -1.959943     25.413079     25.413079     50.826158
     -1.931330     26.752924     26.752924     53.505847
     -1.902718     28.657106     28.657106     57.314211
     -1.874106     31.773097     31.773097     63.546194
     -1.845494     36.374914     36.374914     72.749829
     -1.816881     41.821163     41.821163     83.642326
     -1.788269     46.664151     46.664151     93.328303
     -1.759657     49.334207     49.334207     98.668414
     -1.731044     48.932891     48.932891     97.865782
     -1.702432     45.655149     45.655149     91.310299
     -1.673820     40.642571     40.642571     81.285141
     -1.645207     35.407045     35.407045     70.814089
     -1.616595     31.173265     31.173265     62.346530
     -1.587983     28.499802     28.499802     56.999603
     -1.559371     27.330700     27.330700     54.661400
     -1.530758     27.299109     27.299109     54.598218
     -1.502146     27.947294     27.947294     55.894588
     -1.473534     28.744630     28.744630     57.489259
     -1.444921     29.106048     29.106048     58.212097
     -1.416309     28.589813     28.589813     57.179626
     -1.387697     27.141208     27.141208     54.282415
     -1.359084     25.131054     25.131054     50.262108
     -1.330472     23.152819     23.152819     46.305638
     -1.301860     21.732592     21.732592     43.465185
     -1.273247     21.078589     21.078589     42.157178
     -1.244635     20.949356     20.949356     41.898712
     -1.216023     20.747419     20.747419     41.494837
     -1.187411     19.859104     19.859104     39.718208
     -1.158798     18.030006     18.030006     36.060013
     -1.130186     15.484516     15.484516     30.969032
     -1.101574     12.729529     12.729529     25.459059
     -1.072961     10.258438     10.258438     20.516876
     -1.044349      8.378667      8.378667     16.757335
     -1.015737      7.194663      7.194663     14.389326
     -0.987124      6.656471      6.656471     13.312942
     -0.958512      6.606455      6.606455     13.212909
     -0.929900      6.818395      6.818395     13.636790
     -0.901288      7.054283      7.054283     14.108565
     -0.872675      7.148405      7.148405     14.296810
     -0.844063      7.069686      7.069686     14.139372
     -0.815451      6.887795      6.887795     13.775591
     -0.786838      6.651720      6.651720     13.303440
     -0.758226      6.300077      6.300077     12.600154
     -0.729614      5.705937      5.705937     11.411874
     -0.701001      4.819038      4.819038      9.638075
     -0.672389      3.766698      3.766698      7.533395
     -0.643777      2.815612      2.815612      5.631224
     -0.615165      2.221185      2.221185      4.442371
     -0.586552      2.075712      2.075712      4.151424
     -0.557940      2.255529      2.255529      4.511058
     -0.529328      2.494761      2.494761      4.989522
     -0.500715      2.536743      2.536743      5.073485
     -0.472103      2.269095      2.269095      4.538189
     -0.443491      1.759966      1.759966      3.519932
     -0.414878      1.185064      1.185064      2.370127
     -0.386266      0.715125      0.715125      1.430249
     -0.357654      0.447044      0.447044      0.894088
     -0.329041      0.401820      0.401820      0.803640
     -0.300429      0.549827      0.549827      1.099654
