# EIG2DOS: Utility for SIESTA to obtain the electronic density of states
#  E. Artacho, Apr 1999, A. Garcia, Apr 2012
# ------------------------------------------
# Eigenvalues read from mos2-2graphene.EIG
# Using smearing parameter:   0.100
# Using    700 points in energy range
# Selected bands: 1 to: 1956
# Emin, emax in file for selected band(s):    -23.1057000    153.3436200
# Nbands, Nspin, Nk   =   1956     1    13
# E_F                 =    -4.8909 eV --> (shifted to ZERO)
# Broadening          =     0.1000 eV
#
#        E            N(up)  (=)   N(down)         Ntot
    -10.000000      5.174602      5.174602     10.349203
     -9.971388      4.096868      4.096868      8.193735
     -9.942775      3.705206      3.705206      7.410412
     -9.914163      3.958176      3.958176      7.916353
     -9.885551      4.692051      4.692051      9.384103
     -9.856938      5.746942      5.746942     11.493885
     -9.828326      7.006059      7.006059     14.012118
     -9.799714      8.338754      8.338754     16.677508
     -9.771102      9.530349      9.530349     19.060698
     -9.742489     10.286992     10.286992     20.573983
     -9.713877     10.333791     10.333791     20.667583
     -9.685265      9.547766      9.547766     19.095531
     -9.656652      8.038150      8.038150     16.076301
     -9.628040      6.119279      6.119279     12.238558
     -9.599428      4.191204      4.191204      8.382408
     -9.570815      2.602166      2.602166      5.204333
     -9.542203      1.575221      1.575221      3.150442
     -9.513591      1.232974      1.232974      2.465948
     -9.484979      1.677099      1.677099      3.354198
     -9.456366      3.024750      3.024750      6.049500
     -9.427754      5.325548      5.325548     10.651095
     -9.399142      8.388206      8.388206     16.776413
     -9.370529     11.662349     11.662349     23.324699
     -9.341917     14.332427     14.332427     28.664853
     -9.313305     15.639234     15.639234     31.278468
     -9.284692     15.251228     15.251228     30.502456
     -9.256080     13.438379     13.438379     26.876758
     -9.227468     10.929982     10.929982     21.859963
     -9.198856      8.556802      8.556802     17.113603
     -9.170243      6.904301      6.904301     13.808603
     -9.141631      6.152036      6.152036     12.304073
     -9.113019      6.119840      6.119840     12.239680
     -9.084406      6.431501      6.431501     12.863001
     -9.055794      6.710763      6.710763     13.421527
     -9.027182      6.769798      6.769798     13.539596
     -8.998569      6.732533      6.732533     13.465067
     -8.969957      6.986599      6.986599     13.973198
     -8.941345      7.918540      7.918540     15.837079
     -8.912732      9.578889      9.578889     19.157778
     -8.884120     11.552868     11.552868     23.105737
     -8.855508     13.188459     13.188459     26.376918
     -8.826896     14.029874     14.029874     28.059748
     -8.798283     14.108117     14.108117     28.216233
     -8.769671     13.848498     13.848498     27.696996
     -8.741059     13.678646     13.678646     27.357292
     -8.712446     13.676752     13.676752     27.353503
     -8.683834     13.558445     13.558445     27.116889
     -8.655222     12.986778     12.986778     25.973556
     -8.626609     11.894252     11.894252     23.788504
     -8.597997     10.527477     10.527477     21.054954
     -8.569385      9.236672      9.236672     18.473343
     -8.540773      8.277460      8.277460     16.554921
     -8.512160      7.799843      7.799843     15.599685
     -8.483548      7.921294      7.921294     15.842588
     -8.454936      8.691352      8.691352     17.382703
     -8.426323      9.951588      9.951588     19.903176
     -8.397711     11.285829     11.285829     22.571658
     -8.369099     12.178101     12.178101     24.356201
     -8.340486     12.266054     12.266054     24.532108
     -8.311874     11.495412     11.495412     22.990824
     -8.283262     10.115037     10.115037     20.230073
     -8.254649      8.593204      8.593204     17.186407
     -8.226037      7.516355      7.516355     15.032710
     -8.197425      7.432470      7.432470     14.864940
     -8.168813      8.605966      8.605966     17.211933
     -8.140200     10.791387     10.791387     21.582774
     -8.111588     13.241962     13.241962     26.483925
     -8.082976     15.069021     15.069021     30.138042
     -8.054363     15.779419     15.779419     31.558838
     -8.025751     15.588603     15.588603     31.177206
     -7.997139     15.208451     15.208451     30.416902
     -7.968526     15.233155     15.233155     30.466310
     -7.939914     15.624134     15.624134     31.248267
     -7.911302     15.735177     15.735177     31.470354
     -7.882690     14.849761     14.849761     29.699522
     -7.854077     12.770236     12.770236     25.540471
     -7.825465      9.994885      9.994885     19.989770
     -7.796853      7.394873      7.394873     14.789747
     -7.768240      5.683426      5.683426     11.366852
     -7.739628      5.058237      5.058237     10.116474
     -7.711016      5.210517      5.210517     10.421033
     -7.682403      5.636572      5.636572     11.273144
     -7.653791      6.022116      6.022116     12.044232
     -7.625179      6.446557      6.446557     12.893113
     -7.596567      7.278243      7.278243     14.556486
     -7.567954      8.849776      8.849776     17.699551
     -7.539342     11.164925     11.164925     22.329849
     -7.510730     13.849542     13.849542     27.699083
     -7.482117     16.349607     16.349607     32.699214
     -7.453505     18.197454     18.197454     36.394908
     -7.424893     19.163146     19.163146     38.326292
     -7.396280     19.242200     19.242200     38.484400
     -7.367668     18.554462     18.554462     37.108924
     -7.339056     17.250320     17.250320     34.500640
     -7.310443     15.466488     15.466488     30.932975
     -7.281831     13.323574     13.323574     26.647148
     -7.253219     10.949703     10.949703     21.899406
     -7.224607      8.521792      8.521792     17.043584
     -7.195994      6.305188      6.305188     12.610376
     -7.167382      4.655184      4.655184      9.310369
     -7.138770      3.952153      3.952153      7.904306
     -7.110157      4.476239      4.476239      8.952478
     -7.081545      6.266272      6.266272     12.532545
     -7.052933      9.040299      9.040299     18.080597
     -7.024320     12.258132     12.258132     24.516264
     -6.995708     15.331594     15.331594     30.663188
     -6.967096     17.856755     17.856755     35.713509
     -6.938484     19.695428     19.695428     39.390857
     -6.909871     20.867753     20.867753     41.735506
     -6.881259     21.408840     21.408840     42.817680
     -6.852647     21.361670     21.361670     42.723340
     -6.824034     20.890611     20.890611     41.781222
     -6.795422     20.325733     20.325733     40.651465
     -6.766810     20.001577     20.001577     40.003155
     -6.738197     19.992009     19.992009     39.984017
     -6.709585     20.004446     20.004446     40.008891
     -6.680973     19.582445     19.582445     39.164890
     -6.652361     18.473578     18.473578     36.947156
     -6.623748     16.864219     16.864219     33.728439
     -6.595136     15.324240     15.324240     30.648480
     -6.566524     14.549622     14.549622     29.099243
     -6.537911     15.074791     15.074791     30.149582
     -6.509299     17.061102     17.061102     34.122205
     -6.480687     20.225158     20.225158     40.450316
     -6.452074     23.957250     23.957250     47.914499
     -6.423462     27.584867     27.584867     55.169735
     -6.394850     30.609781     30.609781     61.219563
     -6.366237     32.771268     32.771268     65.542536
     -6.337625     33.975659     33.975659     67.951317
     -6.309013     34.264699     34.264699     68.529397
     -6.280401     33.902986     33.902986     67.805972
     -6.251788     33.454990     33.454990     66.909980
     -6.223176     33.659711     33.659711     67.319421
     -6.194564     35.106627     35.106627     70.213253
     -6.165951     37.967047     37.967047     75.934095
     -6.137339     42.021020     42.021020     84.042040
     -6.108727     46.909206     46.909206     93.818412
     -6.080114     52.297809     52.297809    104.595617
     -6.051502     57.789363     57.789363    115.578725
     -6.022890     62.760109     62.760109    125.520218
     -5.994278     66.412275     66.412275    132.824550
     -5.965665     68.088762     68.088762    136.177523
     -5.937053     67.621310     67.621310    135.242620
     -5.908441     65.448630     65.448630    130.897261
     -5.879828     62.409625     62.409625    124.819249
     -5.851216     59.318878     59.318878    118.637756
     -5.822604     56.582446     56.582446    113.164893
     -5.793991     54.137839     54.137839    108.275678
     -5.765379     51.781127     51.781127    103.562253
     -5.736767     49.562232     49.562232     99.124464
     -5.708155     47.805907     47.805907     95.611813
     -5.679542     46.707946     46.707946     93.415892
     -5.650930     45.961631     45.961631     91.923263
     -5.622318     44.861406     44.861406     89.722813
     -5.593705     42.820360     42.820360     85.640720
     -5.565093     39.843665     39.843665     79.687329
     -5.536481     36.594722     36.594722     73.189443
     -5.507868     34.040830     34.040830     68.081661
     -5.479256     32.917329     32.917329     65.834658
     -5.450644     33.322177     33.322177     66.644355
     -5.422031     34.677749     34.677749     69.355498
     -5.393419     36.068195     36.068195     72.136389
     -5.364807     36.696158     36.696158     73.392315
     -5.336195     36.156127     36.156127     72.312254
     -5.307582     34.455935     34.455935     68.911870
     -5.278970     31.945007     31.945007     63.890015
     -5.250358     29.255255     29.255255     58.510511
     -5.221745     27.162058     27.162058     54.324115
     -5.193133     26.268927     26.268927     52.537853
     -5.164521     26.654182     26.654182     53.308363
     -5.135908     27.780123     27.780123     55.560245
     -5.107296     28.808674     28.808674     57.617348
     -5.078684     29.117791     29.117791     58.235582
     -5.050072     28.635737     28.635737     57.271475
     -5.021459     27.804061     27.804061     55.608123
     -4.992847     27.313365     27.313365     54.626729
     -4.964235     27.840292     27.840292     55.680583
     -4.935622     29.844594     29.844594     59.689189
     -4.907010     33.413301     33.413301     66.826601
     -4.878398     38.252835     38.252835     76.505669
     -4.849785     43.903459     43.903459     87.806918
     -4.821173     49.976764     49.976764     99.953528
     -4.792561     56.106566     56.106566    112.213132
     -4.763948     61.644167     61.644167    123.288334
     -4.735336     65.527500     65.527500    131.055000
     -4.706724     66.635736     66.635736    133.271472
     -4.678112     64.404739     64.404739    128.809478
     -4.649499     59.187540     59.187540    118.375080
     -4.620887     52.108357     52.108357    104.216715
     -4.592275     44.593068     44.593068     89.186136
     -4.563662     37.906863     37.906863     75.813725
     -4.535050     32.889814     32.889814     65.779629
     -4.506438     29.901944     29.901944     59.803887
     -4.477825     28.904130     28.904130     57.808259
     -4.449213     29.585975     29.585975     59.171949
     -4.420601     31.452758     31.452758     62.905515
     -4.391989     33.823056     33.823056     67.646113
     -4.363376     35.822268     35.822268     71.644537
     -4.334764     36.574612     36.574612     73.149224
     -4.306152     35.661227     35.661227     71.322454
     -4.277539     33.565693     33.565693     67.131387
     -4.248927     31.669420     31.669420     63.338839
     -4.220315     31.631269     31.631269     63.262538
     -4.191702     34.462001     34.462001     68.924003
     -4.163090     39.887526     39.887526     79.775053
     -4.134478     46.461490     46.461490     92.922980
     -4.105866     52.377838     52.377838    104.755676
     -4.077253     56.403187     56.403187    112.806374
     -4.048641     58.282134     58.282134    116.564267
     -4.020029     58.449132     58.449132    116.898264
     -3.991416     57.427695     57.427695    114.855389
     -3.962804     55.435526     55.435526    110.871053
     -3.934192     52.442526     52.442526    104.885053
     -3.905579     48.536380     48.536380     97.072761
     -3.876967     44.206493     44.206493     88.412986
     -3.848355     40.237087     40.237087     80.474173
     -3.819742     37.272304     37.272304     74.544608
     -3.791130     35.446968     35.446968     70.893937
     -3.762518     34.416578     34.416578     68.833156
     -3.733906     33.726690     33.726690     67.453379
     -3.705293     33.162180     33.162180     66.324360
     -3.676681     32.798047     32.798047     65.596093
     -3.648069     32.779194     32.779194     65.558387
     -3.619456     33.066540     33.066540     66.133079
     -3.590844     33.377609     33.377609     66.755219
     -3.562232     33.373829     33.373829     66.747658
     -3.533619     32.921746     32.921746     65.843492
     -3.505007     32.180554     32.180554     64.361108
     -3.476395     31.455100     31.455100     62.910200
     -3.447783     30.992135     30.992135     61.984270
     -3.419170     30.894346     30.894346     61.788692
     -3.390558     31.139303     31.139303     62.278606
     -3.361946     31.605718     31.605718     63.211436
     -3.333333     32.086059     32.086059     64.172119
     -3.304721     32.328081     32.328081     64.656162
     -3.276109     32.125967     32.125967     64.251934
     -3.247496     31.439172     31.439172     62.878344
     -3.218884     30.474893     30.474893     60.949786
     -3.190272     29.641604     29.641604     59.283208
     -3.161660     29.347337     29.347337     58.694673
     -3.133047     29.767387     29.767387     59.534775
     -3.104435     30.761390     30.761390     61.522781
     -3.075823     31.982288     31.982288     63.964575
     -3.047210     33.054686     33.054686     66.109372
     -3.018598     33.700916     33.700916     67.401832
     -2.989986     33.803347     33.803347     67.606694
     -2.961373     33.427279     33.427279     66.854558
     -2.932761     32.779559     32.779559     65.559119
     -2.904149     32.087617     32.087617     64.175233
     -2.875536     31.475993     31.475993     62.951986
     -2.846924     30.953786     30.953786     61.907572
     -2.818312     30.534717     30.534717     61.069435
     -2.789700     30.380215     30.380215     60.760431
     -2.761087     30.807222     30.807222     61.614444
     -2.732475     32.095702     32.095702     64.191405
     -2.703863     34.220749     34.220749     68.441497
     -2.675250     36.740775     36.740775     73.481551
     -2.646638     38.945450     38.945450     77.890899
     -2.618026     40.135334     40.135334     80.270667
     -2.589413     39.852766     39.852766     79.705532
     -2.560801     38.025101     38.025101     76.050201
     -2.532189     35.049525     35.049525     70.099050
     -2.503577     31.745891     31.745891     63.491782
     -2.474964     29.067564     29.067564     58.135128
     -2.446352     27.660640     27.660640     55.321280
     -2.417740     27.584633     27.584633     55.169266
     -2.389127     28.427606     28.427606     56.855212
     -2.360515     29.701264     29.701264     59.402528
     -2.331903     31.164367     31.164367     62.328733
     -2.303290     32.831897     32.831897     65.663793
     -2.274678     34.718280     34.718280     69.436559
     -2.246066     36.552082     36.552082     73.104163
     -2.217454     37.707346     37.707346     75.414692
     -2.188841     37.475344     37.475344     74.950688
     -2.160229     35.564766     35.564766     71.129532
     -2.131617     32.458883     32.458883     64.917766
     -2.103004     29.250974     29.250974     58.501947
     -2.074392     26.984664     26.984664     53.969328
     -2.045780     26.025358     26.025358     52.050715
     -2.017167     26.021785     26.021785     52.043570
     -1.988555     26.464872     26.464872     52.929745
     -1.959943     27.276347     27.276347     54.552693
     -1.931330     28.880118     28.880118     57.760236
     -1.902718     31.757140     31.757140     63.514280
     -1.874106     35.927146     35.927146     71.854292
     -1.845494     40.751680     40.751680     81.503360
     -1.816881     45.126670     45.126670     90.253339
     -1.788269     47.899873     47.899873     95.799745
     -1.759657     48.306500     48.306500     96.613000
     -1.731044     46.260711     46.260711     92.521422
     -1.702432     42.388508     42.388508     84.777016
     -1.673820     37.761893     37.761893     75.523786
     -1.645207     33.449957     33.449957     66.899915
     -1.616595     30.153973     30.153973     60.307946
     -1.587983     28.130326     28.130326     56.260653
     -1.559371     27.323262     27.323262     54.646524
     -1.530758     27.458952     27.458952     54.917905
     -1.502146     28.022241     28.022241     56.044482
     -1.473534     28.299785     28.299785     56.599571
     -1.444921     27.647401     27.647401     55.294802
     -1.416309     25.858948     25.858948     51.717895
     -1.387697     23.339920     23.339920     46.679841
     -1.359084     20.910764     20.910764     41.821528
     -1.330472     19.340297     19.340297     38.680593
     -1.301860     18.900639     18.900639     37.801279
     -1.273247     19.222446     19.222446     38.444892
     -1.244635     19.539010     19.539010     39.078020
     -1.216023     19.155154     19.155154     38.310307
     -1.187411     17.821264     17.821264     35.642528
     -1.158798     15.770346     15.770346     31.540692
     -1.130186     13.454234     13.454234     26.908468
     -1.101574     11.245977     11.245977     22.491953
     -1.072961      9.337056      9.337056     18.674112
     -1.044349      7.823290      7.823290     15.646580
     -1.015737      6.804673      6.804673     13.609346
     -0.987124      6.361152      6.361152     12.722304
     -0.958512      6.431005      6.431005     12.862010
     -0.929900      6.746179      6.746179     13.492358
     -0.901288      6.943893      6.943893     13.887786
     -0.872675      6.792562      6.792562     13.585124
     -0.844063      6.330199      6.330199     12.660397
     -0.815451      5.783473      5.783473     11.566946
     -0.786838      5.345460      5.345460     10.690919
     -0.758226      5.014673      5.014673     10.029345
     -0.729614      4.626827      4.626827      9.253655
     -0.701001      4.033840      4.033840      8.067680
     -0.672389      3.264183      3.264183      6.528366
     -0.643777      2.528506      2.528506      5.057012
     -0.615165      2.074579      2.074579      4.149157
     -0.586552      2.013317      2.013317      4.026633
     -0.557940      2.241620      2.241620      4.483240
     -0.529328      2.505231      2.505231      5.010462
     -0.500715      2.552625      2.552625      5.105250
     -0.472103      2.277135      2.277135      4.554271
     -0.443491      1.755877      1.755877      3.511753
     -0.414878      1.173174      1.173174      2.346347
     -0.386266      0.703553      0.703553      1.407106
     -0.357654      0.442554      0.442554      0.885108
     -0.329041      0.407456      0.407456      0.814913
     -0.300429      0.564605      0.564605      1.129209
