# EIG2DOS: Utility for SIESTA to obtain the electronic density of states
#  E. Artacho, Apr 1999, A. Garcia, Apr 2012
# ------------------------------------------
# Eigenvalues read from mos2-3graphene.EIG
# Using smearing parameter:   0.100
# Using    700 points in energy range
# Selected bands: 1 to: 2606
# Emin, emax in file for selected band(s):    -23.1668500    159.6569200
# Nbands, Nspin, Nk   =   2606     1    13
# E_F                 =    -4.9242 eV --> (shifted to ZERO)
# Broadening          =     0.1000 eV
#
#        E            N(up)  (=)   N(down)         Ntot
    -10.000000      8.252848      8.252848     16.505696
     -9.971388      6.912063      6.912063     13.824126
     -9.942775      6.339778      6.339778     12.679557
     -9.914163      6.590062      6.590062     13.180125
     -9.885551      7.559715      7.559715     15.119430
     -9.856938      9.040986      9.040986     18.081972
     -9.828326     10.769686     10.769686     21.539373
     -9.799714     12.457152     12.457152     24.914304
     -9.771102     13.806458     13.806458     27.612915
     -9.742489     14.528975     14.528975     29.057950
     -9.713877     14.393316     14.393316     28.786633
     -9.685265     13.312337     13.312337     26.624674
     -9.656652     11.413039     11.413039     22.826077
     -9.628040      9.022151      9.022151     18.044302
     -9.599428      6.568970      6.568970     13.137941
     -9.570815      4.475869      4.475869      8.951737
     -9.542203      3.099989      3.099989      6.199978
     -9.513591      2.729450      2.729450      5.458899
     -9.484979      3.584823      3.584823      7.169646
     -9.456366      5.766228      5.766228     11.532456
     -9.427754      9.135022      9.135022     18.270044
     -9.399142     13.208126     13.208126     26.416251
     -9.370529     17.188305     17.188305     34.376609
     -9.341917     20.183071     20.183071     40.366143
     -9.313305     21.525213     21.525213     43.050426
     -9.284692     21.025000     21.025000     42.050000
     -9.256080     19.023165     19.023165     38.046331
     -9.227468     16.230900     16.230900     32.461799
     -9.198856     13.450163     13.450163     26.900326
     -9.170243     11.303089     11.303089     22.606177
     -9.141631     10.064323     10.064323     20.128645
     -9.113019      9.638223      9.638223     19.276446
     -9.084406      9.687402      9.687402     19.374803
     -9.055794      9.870397      9.870397     19.740794
     -9.027182     10.069518     10.069518     20.139035
     -8.998569     10.457921     10.457921     20.915841
     -8.969957     11.343368     11.343368     22.686736
     -8.941345     12.892448     12.892448     25.784896
     -8.912732     14.945912     14.945912     29.891824
     -8.884120     17.075479     17.075479     34.150958
     -8.855508     18.834872     18.834872     37.669744
     -8.826896     19.997296     19.997296     39.994592
     -8.798283     20.604455     20.604455     41.208910
     -8.769671     20.831143     20.831143     41.662286
     -8.741059     20.806844     20.806844     41.613688
     -8.712446     20.529967     20.529967     41.059934
     -8.683834     19.909248     19.909248     39.818496
     -8.655222     18.868780     18.868780     37.737560
     -8.626609     17.432210     17.432210     34.864421
     -8.597997     15.755640     15.755640     31.511280
     -8.569385     14.121452     14.121452     28.242904
     -8.540773     12.886770     12.886770     25.773540
     -8.512160     12.367887     12.367887     24.735774
     -8.483548     12.696102     12.696102     25.392205
     -8.454936     13.737693     13.737693     27.475386
     -8.426323     15.138456     15.138456     30.276911
     -8.397711     16.452884     16.452884     32.905767
     -8.369099     17.267553     17.267553     34.535106
     -8.340486     17.287459     17.287459     34.574918
     -8.311874     16.428131     16.428131     32.856263
     -8.283262     14.919208     14.919208     29.838416
     -8.254649     13.322567     13.322567     26.645133
     -8.226037     12.365819     12.365819     24.731637
     -8.197425     12.624611     12.624611     25.249222
     -8.168813     14.220589     14.220589     28.441177
     -8.140200     16.726144     16.726144     33.452288
     -8.111588     19.368377     19.368377     38.736753
     -8.082976     21.437039     21.437039     42.874077
     -8.054363     22.635729     22.635729     45.271458
     -8.025751     23.134026     23.134026     46.268051
     -7.997139     23.303657     23.303657     46.607313
     -7.968526     23.361492     23.361492     46.722985
     -7.939914     23.186286     23.186286     46.372572
     -7.911302     22.414708     22.414708     44.829416
     -7.882690     20.721410     20.721410     41.442821
     -7.854077     18.094013     18.094013     36.188027
     -7.825465     14.936677     14.936677     29.873354
     -7.796853     11.925567     11.925567     23.851133
     -7.768240      9.681829      9.681829     19.363658
     -7.739628      8.473233      8.473233     16.946466
     -7.711016      8.163210      8.163210     16.326420
     -7.682403      8.433178      8.433178     16.866356
     -7.653791      9.078782      9.078782     18.157563
     -7.625179     10.146069     10.146069     20.292138
     -7.596567     11.836914     11.836914     23.673829
     -7.567954     14.291356     14.291356     28.582712
     -7.539342     17.409336     17.409336     34.818672
     -7.510730     20.815265     20.815265     41.630530
     -7.482117     23.972963     23.972963     47.945927
     -7.453505     26.378911     26.378911     52.757821
     -7.424893     27.722181     27.722181     55.444362
     -7.396280     27.924846     27.924846     55.849692
     -7.367668     27.067524     27.067524     54.135048
     -7.339056     25.289199     25.289199     50.578399
     -7.310443     22.744518     22.744518     45.489036
     -7.281831     19.625218     19.625218     39.250435
     -7.253219     16.199108     16.199108     32.398216
     -7.224607     12.828656     12.828656     25.657312
     -7.195994      9.961723      9.961723     19.923445
     -7.167382      8.092146      8.092146     16.184291
     -7.138770      7.667590      7.667590     15.335180
     -7.110157      8.931885      8.931885     17.863770
     -7.081545     11.767757     11.767757     23.535514
     -7.052933     15.673206     15.673206     31.346412
     -7.024320     19.932803     19.932803     39.865606
     -6.995708     23.872992     23.872992     47.745985
     -6.967096     27.025967     27.025967     54.051935
     -6.938484     29.155389     29.155389     58.310777
     -6.909871     30.236606     30.236606     60.473212
     -6.881259     30.451205     30.451205     60.902410
     -6.852647     30.140499     30.140499     60.280998
     -6.824034     29.666380     29.666380     59.332760
     -6.795422     29.244762     29.244762     58.489524
     -6.766810     28.871086     28.871086     57.742172
     -6.738197     28.384365     28.384365     56.768730
     -6.709585     27.616974     27.616974     55.233948
     -6.680973     26.537257     26.537257     53.074515
     -6.652361     25.306228     25.306228     50.612456
     -6.623748     24.219364     24.219364     48.438729
     -6.595136     23.580775     23.580775     47.161549
     -6.566524     23.611510     23.611510     47.223020
     -6.537911     24.452300     24.452300     48.904600
     -6.509299     26.196920     26.196920     52.393841
     -6.480687     28.844939     28.844939     57.689878
     -6.452074     32.198616     32.198616     64.397231
     -6.423462     35.864674     35.864674     71.729349
     -6.394850     39.404704     39.404704     78.809408
     -6.366237     42.451338     42.451338     84.902675
     -6.337625     44.664595     44.664595     89.329191
     -6.309013     45.712415     45.712415     91.424829
     -6.280401     45.513960     45.513960     91.027919
     -6.251788     44.599589     44.599589     89.199178
     -6.223176     44.129363     44.129363     88.258726
     -6.194564     45.365325     45.365325     90.730650
     -6.165951     48.959225     48.959225     97.918449
     -6.137339     54.623563     54.623563    109.247125
     -6.108727     61.373102     61.373102    122.746204
     -6.080114     68.024751     68.024751    136.049503
     -6.051502     73.568667     73.568667    147.137333
     -6.022890     77.339062     77.339062    154.678125
     -5.994278     79.134436     79.134436    158.268873
     -5.965665     79.301349     79.301349    158.602698
     -5.937053     78.590766     78.590766    157.181533
     -5.908441     77.722618     77.722618    155.445236
     -5.879828     76.952486     76.952486    153.904971
     -5.851216     76.015825     76.015825    152.031650
     -5.822604     74.462968     74.462968    148.925936
     -5.793991     72.052132     72.052132    144.104264
     -5.765379     68.934985     68.934985    137.869971
     -5.736767     65.615246     65.615246    131.230492
     -5.708155     62.718009     62.718009    125.436019
     -5.679542     60.610743     60.610743    121.221485
     -5.650930     59.099893     59.099893    118.199785
     -5.622318     57.517049     57.517049    115.034097
     -5.593705     55.196204     55.196204    110.392407
     -5.565093     51.963871     51.963871    103.927743
     -5.536481     48.300759     48.300759     96.601518
     -5.507868     45.133258     45.133258     90.266515
     -5.479256     43.364957     43.364957     86.729914
     -5.450644     43.319373     43.319373     86.638746
     -5.422031     44.424310     44.424310     88.848621
     -5.393419     45.466025     45.466025     90.932050
     -5.364807     45.322011     45.322011     90.644023
     -5.336195     43.630723     43.630723     87.261447
     -5.307582     40.926336     40.926336     81.852671
     -5.278970     38.247386     38.247386     76.494772
     -5.250358     36.558279     36.558279     73.116558
     -5.221745     36.298272     36.298272     72.596545
     -5.193133     37.235064     37.235064     74.470128
     -5.164521     38.678280     38.678280     77.356560
     -5.135908     39.906516     39.906516     79.813032
     -5.107296     40.474122     40.474122     80.948244
     -5.078684     40.187448     40.187448     80.374896
     -5.050072     38.938302     38.938302     77.876604
     -5.021459     36.756308     36.756308     73.512616
     -4.992847     34.106561     34.106561     68.213122
     -4.964235     32.037247     32.037247     64.074495
     -4.935622     31.863207     31.863207     63.726413
     -4.907010     34.577463     34.577463     69.154926
     -4.878398     40.470721     40.470721     80.941442
     -4.849785     49.156539     49.156539     98.313078
     -4.821173     59.719325     59.719325    119.438651
     -4.792561     70.660621     70.660621    141.321242
     -4.763948     79.827559     79.827559    159.655119
     -4.735336     84.888783     84.888783    169.777566
     -4.706724     84.465220     84.465220    168.930441
     -4.678112     79.080286     79.080286    158.160572
     -4.649499     70.917166     70.917166    141.834332
     -4.620887     62.434711     62.434711    124.869422
     -4.592275     55.027755     55.027755    110.055511
     -4.563662     48.788924     48.788924     97.577847
     -4.535050     43.291193     43.291193     86.582387
     -4.506438     38.489850     38.489850     76.979700
     -4.477825     34.993907     34.993907     69.987813
     -4.449213     33.621729     33.621729     67.243459
     -4.420601     34.675806     34.675806     69.351612
     -4.391989     37.508884     37.508884     75.017767
     -4.363376     40.733163     40.733163     81.466325
     -4.334764     42.958756     42.958756     85.917512
     -4.306152     43.536994     43.536994     87.073987
     -4.277539     42.808106     42.808106     85.616211
     -4.248927     41.811581     41.811581     83.623161
     -4.220315     41.807012     41.807012     83.614023
     -4.191702     43.874761     43.874761     87.749521
     -4.163090     48.563200     48.563200     97.126401
     -4.134478     55.530773     55.530773    111.061547
     -4.105866     63.407890     63.407890    126.815780
     -4.077253     70.175842     70.175842    140.351684
     -4.048641     73.982561     73.982561    147.965122
     -4.020029     73.906763     73.906763    147.813526
     -3.991416     70.231357     70.231357    140.462713
     -3.962804     64.172615     64.172615    128.345230
     -3.934192     57.286813     57.286813    114.573626
     -3.905579     50.838013     50.838013    101.676025
     -3.876967     45.428931     45.428931     90.857862
     -3.848355     41.118163     41.118163     82.236326
     -3.819742     37.907699     37.907699     75.815398
     -3.791130     36.115889     36.115889     72.231778
     -3.762518     36.234382     36.234382     72.468763
     -3.733906     38.407613     38.407613     76.815226
     -3.705293     42.065881     42.065881     84.131762
     -3.676681     46.052457     46.052457     92.104914
     -3.648069     49.103659     49.103659     98.207318
     -3.619456     50.326750     50.326750    100.653499
     -3.590844     49.463317     49.463317     98.926634
     -3.562232     46.901727     46.901727     93.803454
     -3.533619     43.454932     43.454932     86.909864
     -3.505007     39.979449     39.979449     79.958898
     -3.476395     37.025579     37.025579     74.051158
     -3.447783     34.726207     34.726207     69.452415
     -3.419170     32.969170     32.969170     65.938341
     -3.390558     31.693003     31.693003     63.386006
     -3.361946     31.072105     31.072105     62.144211
     -3.333333     31.437300     31.437300     62.874601
     -3.304721     32.955308     32.955308     65.910616
     -3.276109     35.314080     35.314080     70.628160
     -3.247496     37.754716     37.754716     75.509432
     -3.218884     39.531131     39.531131     79.062261
     -3.190272     40.423420     40.423420     80.846841
     -3.161660     40.817156     40.817156     81.634312
     -3.133047     41.285523     41.285523     82.571045
     -3.104435     42.082816     42.082816     84.165633
     -3.075823     42.961597     42.961597     85.923194
     -3.047210     43.371250     43.371250     86.742500
     -3.018598     42.821500     42.821500     85.643001
     -2.989986     41.173777     41.173777     82.347555
     -2.961373     38.733176     38.733176     77.466352
     -2.932761     36.128529     36.128529     72.257057
     -2.904149     34.053013     34.053013     68.106025
     -2.875536     32.986832     32.986832     65.973664
     -2.846924     33.031056     33.031056     66.062112
     -2.818312     33.936777     33.936777     67.873554
     -2.789700     35.316818     35.316818     70.633637
     -2.761087     36.920368     36.920368     73.840736
     -2.732475     38.794164     38.794164     77.588329
     -2.703863     41.186589     41.186589     82.373178
     -2.675250     44.195813     44.195813     88.391626
     -2.646638     47.386440     47.386440     94.772881
     -2.618026     49.736018     49.736018     99.472037
     -2.589413     50.114753     50.114753    100.229506
     -2.560801     48.063149     48.063149     96.126299
     -2.532189     44.267725     44.267725     88.535450
     -2.503577     40.257172     40.257172     80.514345
     -2.474964     37.455747     37.455747     74.911493
     -2.446352     36.313730     36.313730     72.627460
     -2.417740     36.205883     36.205883     72.411767
     -2.389127     36.133390     36.133390     72.266780
     -2.360515     35.592843     35.592843     71.185686
     -2.331903     34.898053     34.898053     69.796106
     -2.303290     34.759799     34.759799     69.519597
     -2.274678     35.531211     35.531211     71.062421
     -2.246066     36.759340     36.759340     73.518679
     -2.217454     37.452103     37.452103     74.904206
     -2.188841     36.916670     36.916670     73.833340
     -2.160229     35.486410     35.486410     70.972820
     -2.131617     34.426977     34.426977     68.853954
     -2.103004     34.982886     34.982886     69.965772
     -2.074392     37.337527     37.337527     74.675053
     -2.045780     40.393311     40.393311     80.786622
     -2.017167     42.573957     42.573957     85.147914
     -1.988555     42.978055     42.978055     85.956110
     -1.959943     41.963486     41.963486     83.926973
     -1.931330     40.776304     40.776304     81.552608
     -1.902718     40.602375     40.602375     81.204749
     -1.874106     41.767848     41.767848     83.535696
     -1.845494     43.603318     43.603318     87.206636
     -1.816881     44.997235     44.997235     89.994469
     -1.788269     45.201767     45.201767     90.403535
     -1.759657     44.274758     44.274758     88.549517
     -1.731044     42.842669     42.842669     85.685339
     -1.702432     41.480562     41.480562     82.961124
     -1.673820     40.332683     40.332683     80.665366
     -1.645207     39.264752     39.264752     78.529505
     -1.616595     38.228266     38.228266     76.456532
     -1.587983     37.346143     37.346143     74.692286
     -1.559371     36.658301     36.658301     73.316602
     -1.530758     35.912369     35.912369     71.824737
     -1.502146     34.693636     34.693636     69.387272
     -1.473534     32.745449     32.745449     65.490898
     -1.444921     30.151425     30.151425     60.302850
     -1.416309     27.289981     27.289981     54.579963
     -1.387697     24.685554     24.685554     49.371108
     -1.359084     22.810185     22.810185     45.620370
     -1.330472     21.832641     21.832641     43.665282
     -1.301860     21.476773     21.476773     42.953547
     -1.273247     21.203729     21.203729     42.407457
     -1.244635     20.618372     20.618372     41.236743
     -1.216023     19.701128     19.701128     39.402256
     -1.187411     18.647308     18.647308     37.294616
     -1.158798     17.547902     17.547902     35.095803
     -1.130186     16.282194     16.282194     32.564388
     -1.101574     14.693259     14.693259     29.386518
     -1.072961     12.816482     12.816482     25.632964
     -1.044349     10.942740     10.942740     21.885480
     -1.015737      9.485339      9.485339     18.970678
     -0.987124      8.750062      8.750062     17.500124
     -0.958512      8.743874      8.743874     17.487748
     -0.929900      9.136074      9.136074     18.272147
     -0.901288      9.403497      9.403497     18.806994
     -0.872675      9.084746      9.084746     18.169491
     -0.844063      8.010370      8.010370     16.020740
     -0.815451      6.391160      6.391160     12.782320
     -0.786838      4.718055      4.718055      9.436110
     -0.758226      3.526554      3.526554      7.053109
     -0.729614      3.147276      3.147276      6.294552
     -0.701001      3.555183      3.555183      7.110366
     -0.672389      4.377010      4.377010      8.754021
     -0.643777      5.067897      5.067897     10.135794
     -0.615165      5.196626      5.196626     10.393252
     -0.586552      4.678466      4.678466      9.356933
     -0.557940      3.784225      3.784225      7.568451
     -0.529328      2.917389      2.917389      5.834779
     -0.500715      2.348115      2.348115      4.696231
     -0.472103      2.106375      2.106375      4.212750
     -0.443491      2.061779      2.061779      4.123558
     -0.414878      2.060388      2.060388      4.120776
     -0.386266      1.999130      1.999130      3.998261
     -0.357654      1.833330      1.833330      3.666661
     -0.329041      1.574111      1.574111      3.148222
     -0.300429      1.291879      1.291879      2.583759
