# EIG2DOS: Utility for SIESTA to obtain the electronic density of states
#  E. Artacho, Apr 1999, A. Garcia, Apr 2012
# ------------------------------------------
# Eigenvalues read from 3mos2-2graphene.EIG
# Using smearing parameter:   0.100
# Using    700 points in energy range
# Selected bands: 1 to: 3268
# Emin, emax in file for selected band(s):    -22.8630300    153.2849800
# Nbands, Nspin, Nk   =   3268     1    13
# E_F                 =    -4.7460 eV --> (shifted to ZERO)
# Broadening          =     0.1000 eV
#
#        E            N(up)  (=)   N(down)         Ntot
    -10.000000      9.830531      9.830531     19.661062
     -9.971388      8.873274      8.873274     17.746547
     -9.942775      7.561792      7.561792     15.123583
     -9.914163      6.167745      6.167745     12.335491
     -9.885551      4.982033      4.982033      9.964066
     -9.856938      4.238946      4.238946      8.477892
     -9.828326      4.060324      4.060324      8.120649
     -9.799714      4.444288      4.444288      8.888576
     -9.771102      5.289292      5.289292     10.578584
     -9.742489      6.430245      6.430245     12.860490
     -9.713877      7.672021      7.672021     15.344043
     -9.685265      8.809280      8.809280     17.618560
     -9.656652      9.629869      9.629869     19.259738
     -9.628040      9.929053      9.929053     19.858106
     -9.599428      9.566802      9.566802     19.133603
     -9.570815      8.544096      8.544096     17.088192
     -9.542203      7.028680      7.028680     14.057359
     -9.513591      5.302132      5.302132     10.604263
     -9.484979      3.673395      3.673395      7.346789
     -9.456366      2.415926      2.415926      4.831851
     -9.427754      1.746577      1.746577      3.493155
     -9.399142      1.830422      1.830422      3.660845
     -9.370529      2.776712      2.776712      5.553423
     -9.341917      4.591733      4.591733      9.183465
     -9.313305      7.098403      7.098403     14.196807
     -9.284692      9.892710      9.892710     19.785420
     -9.256080     12.407759     12.407759     24.815517
     -9.227468     14.082577     14.082577     28.165154
     -9.198856     14.558550     14.558550     29.117101
     -9.170243     13.810923     13.810923     27.621845
     -9.141631     12.156148     12.156148     24.312295
     -9.113019     10.130154     10.130154     20.260308
     -9.084406      8.288981      8.288981     16.577962
     -9.055794      7.015091      7.015091     14.030183
     -9.027182      6.406849      6.406849     12.813697
     -8.998569      6.299249      6.299249     12.598497
     -8.969957      6.412407      6.412407     12.824813
     -8.941345      6.549206      6.549206     13.098413
     -8.912732      6.717500      6.717500     13.434999
     -8.884120      7.096901      7.096901     14.193802
     -8.855508      7.879140      7.879140     15.758280
     -8.826896      9.098095      9.098095     18.196189
     -8.798283     10.571942     10.571942     21.143884
     -8.769671     11.994677     11.994677     23.989354
     -8.741059     13.096515     13.096515     26.193029
     -8.712446     13.754463     13.754463     27.508927
     -8.683834     14.002003     14.002003     28.004006
     -8.655222     13.962227     13.962227     27.924453
     -8.626609     13.753207     13.753207     27.506415
     -8.597997     13.417584     13.417584     26.835167
     -8.569385     12.914804     12.914804     25.829608
     -8.540773     12.174488     12.174488     24.348975
     -8.512160     11.179232     11.179232     22.358464
     -8.483548     10.035883     10.035883     20.071765
     -8.454936      8.983711      8.983711     17.967422
     -8.426323      8.307479      8.307479     16.614958
     -8.397711      8.198390      8.198390     16.396780
     -8.369099      8.661068      8.661068     17.322136
     -8.340486      9.523978      9.523978     19.047956
     -8.311874     10.517828     10.517828     21.035657
     -8.283262     11.346951     11.346951     22.693903
     -8.254649     11.734123     11.734123     23.468246
     -8.226037     11.490739     11.490739     22.981478
     -8.197425     10.632649     10.632649     21.265299
     -8.168813      9.453189      9.453189     18.906378
     -8.140200      8.447855      8.447855     16.895709
     -8.111588      8.104626      8.104626     16.209251
     -8.082976      8.678665      8.678665     17.357330
     -8.054363     10.068735     10.068735     20.137469
     -8.025751     11.861285     11.861285     23.722571
     -7.997139     13.535459     13.535459     27.070917
     -7.968526     14.719953     14.719953     29.439906
     -7.939914     15.338927     15.338927     30.677854
     -7.911302     15.560323     15.560323     31.120645
     -7.882690     15.605172     15.605172     31.210344
     -7.854077     15.559581     15.559581     31.119162
     -7.825465     15.304448     15.304448     30.608897
     -7.796853     14.594184     14.594184     29.188368
     -7.768240     13.239704     13.239704     26.479408
     -7.739628     11.295103     11.295103     22.590207
     -7.711016      9.114842      9.114842     18.229684
     -7.682403      7.202351      7.202351     14.404702
     -7.653791      5.936761      5.936761     11.873522
     -7.625179      5.393597      5.393597     10.787194
     -7.596567      5.396953      5.396953     10.793906
     -7.567954      5.727032      5.727032     11.454065
     -7.539342      6.294980      6.294980     12.589960
     -7.510730      7.171951      7.171951     14.343902
     -7.482117      8.492098      8.492098     16.984195
     -7.453505     10.314103     10.314103     20.628205
     -7.424893     12.522018     12.522018     25.044037
     -7.396280     14.817659     14.817659     29.635319
     -7.367668     16.814756     16.814756     33.629512
     -7.339056     18.185368     18.185368     36.370736
     -7.310443     18.765140     18.765140     37.530279
     -7.281831     18.555408     18.555408     37.110815
     -7.253219     17.652054     17.652054     35.304108
     -7.224607     16.179490     16.179490     32.358980
     -7.195994     14.269848     14.269848     28.539696
     -7.167382     12.074431     12.074431     24.148863
     -7.138770      9.782116      9.782116     19.564233
     -7.110157      7.630450      7.630450     15.260901
     -7.081545      5.903518      5.903518     11.807036
     -7.052933      4.904106      4.904106      9.808212
     -7.024320      4.879637      4.879637      9.759274
     -6.995708      5.915399      5.915399     11.830797
     -6.967096      7.871909      7.871909     15.743819
     -6.938484     10.437694     10.437694     20.875389
     -6.909871     13.265647     13.265647     26.531295
     -6.881259     16.086757     16.086757     32.173515
     -6.852647     18.748368     18.748368     37.496736
     -6.824034     21.214003     21.214003     42.428006
     -6.795422     23.558278     23.558278     47.116557
     -6.766810     25.938501     25.938501     51.877001
     -6.738197     28.539369     28.539369     57.078738
     -6.709585     31.527800     31.527800     63.055601
     -6.680973     35.011895     35.011895     70.023790
     -6.652361     38.944121     38.944121     77.888243
     -6.623748     43.002044     43.002044     86.004088
     -6.595136     46.627825     46.627825     93.255650
     -6.566524     49.331241     49.331241     98.662482
     -6.537911     51.054967     51.054967    102.109934
     -6.509299     52.246591     52.246591    104.493182
     -6.480687     53.553445     53.553445    107.106891
     -6.452074     55.470142     55.470142    110.940284
     -6.423462     58.274774     58.274774    116.549549
     -6.394850     62.162735     62.162735    124.325470
     -6.366237     67.246826     67.246826    134.493652
     -6.337625     73.381436     73.381436    146.762871
     -6.309013     80.111294     80.111294    160.222588
     -6.280401     86.917507     86.917507    173.835014
     -6.251788     93.543215     93.543215    187.086429
     -6.223176    100.065076    100.065076    200.130153
     -6.194564    106.642695    106.642695    213.285391
     -6.165951    113.183317    113.183317    226.366634
     -6.137339    119.202338    119.202338    238.404677
     -6.108727    123.972197    123.972197    247.944394
     -6.080114    126.849970    126.849970    253.699939
     -6.051502    127.575690    127.575690    255.151379
     -6.022890    126.342510    126.342510    252.685020
     -5.994278    123.590181    123.590181    247.180362
     -5.965665    119.710387    119.710387    239.420775
     -5.937053    114.914630    114.914630    229.829259
     -5.908441    109.302620    109.302620    218.605240
     -5.879828    102.989310    102.989310    205.978619
     -5.851216     96.214502     96.214502    192.429004
     -5.822604     89.432425     89.432425    178.864850
     -5.793991     83.280456     83.280456    166.560913
     -5.765379     78.314107     78.314107    156.628214
     -5.736767     74.659249     74.659249    149.318499
     -5.708155     71.943938     71.943938    143.887875
     -5.679542     69.641293     69.641293    139.282586
     -5.650930     67.482075     67.482075    134.964151
     -5.622318     65.475627     65.475627    130.951253
     -5.593705     63.517088     63.517088    127.034175
     -5.565093     61.077466     61.077466    122.154932
     -5.536481     57.448190     57.448190    114.896380
     -5.507868     52.404706     52.404706    104.809412
     -5.479256     46.629120     46.629120     93.258239
     -5.450644     41.432328     41.432328     82.864656
     -5.422031     38.022134     38.022134     76.044268
     -5.393419     36.933014     36.933014     73.866028
     -5.364807     37.939822     37.939822     75.879643
     -5.336195     40.340343     40.340343     80.680685
     -5.307582     43.362821     43.362821     86.725642
     -5.278970     46.510160     46.510160     93.020320
     -5.250358     49.714250     49.714250     99.428500
     -5.221745     53.303923     53.303923    106.607847
     -5.193133     57.925946     57.925946    115.851892
     -5.164521     64.473403     64.473403    128.946805
     -5.135908     73.844890     73.844890    147.689780
     -5.107296     86.396228     86.396228    172.792457
     -5.078684    101.369005    101.369005    202.738010
     -5.050072    116.859089    116.859089    233.718177
     -5.021459    130.513081    130.513081    261.026161
     -4.992847    140.449225    140.449225    280.898450
     -4.964235    145.733428    145.733428    291.466856
     -4.935622    146.267089    146.267089    292.534177
     -4.907010    142.442278    142.442278    284.884556
     -4.878398    134.904168    134.904168    269.808336
     -4.849785    124.524309    124.524309    249.048618
     -4.821173    112.520075    112.520075    225.040150
     -4.792561    100.470318    100.470318    200.940637
     -4.763948     89.938236     89.938236    179.876473
     -4.735336     81.823806     81.823806    163.647611
     -4.706724     76.027246     76.027246    152.054492
     -4.678112     71.777916     71.777916    143.555833
     -4.649499     68.267983     68.267983    136.535966
     -4.620887     64.998520     64.998520    129.997039
     -4.592275     61.767354     61.767354    123.534707
     -4.563662     58.687976     58.687976    117.375953
     -4.535050     56.391602     56.391602    112.783205
     -4.506438     56.061499     56.061499    112.122998
     -4.477825     58.962781     58.962781    117.925562
     -4.449213     65.693469     65.693469    131.386938
     -4.420601     75.793322     75.793322    151.586644
     -4.391989     88.072518     88.072518    176.145036
     -4.363376    101.299078    101.299078    202.598157
     -4.334764    114.502127    114.502127    229.004254
     -4.306152    126.628832    126.628832    253.257665
     -4.277539    136.152380    136.152380    272.304759
     -4.248927    141.364142    141.364142    282.728284
     -4.220315    141.229540    141.229540    282.459080
     -4.191702    135.960613    135.960613    271.921225
     -4.163090    126.827325    126.827325    253.654649
     -4.134478    115.573332    115.573332    231.146664
     -4.105866    103.946217    103.946217    207.892433
     -4.077253     93.389567     93.389567    186.779135
     -4.048641     84.793164     84.793164    169.586328
     -4.020029     78.431860     78.431860    156.863720
     -3.991416     74.193092     74.193092    148.386183
     -3.962804     71.859515     71.859515    143.719031
     -3.934192     71.153569     71.153569    142.307139
     -3.905579     71.596637     71.596637    143.193275
     -3.876967     72.491258     72.491258    144.982516
     -3.848355     73.150418     73.150418    146.300836
     -3.819742     73.140084     73.140084    146.280168
     -3.791130     72.276571     72.276571    144.553141
     -3.762518     70.469095     70.469095    140.938191
     -3.733906     67.702958     67.702958    135.405917
     -3.705293     64.204103     64.204103    128.408205
     -3.676681     60.503459     60.503459    121.006918
     -3.648069     57.222241     57.222241    114.444483
     -3.619456     54.755788     54.755788    109.511577
     -3.590844     53.138937     53.138937    106.277873
     -3.562232     52.177648     52.177648    104.355296
     -3.533619     51.738809     51.738809    103.477617
     -3.505007     51.993015     51.993015    103.986029
     -3.476395     53.369214     53.369214    106.738428
     -3.447783     56.177728     56.177728    112.355455
     -3.419170     60.255886     60.255886    120.511772
     -3.390558     65.043170     65.043170    130.086341
     -3.361946     69.976918     69.976918    139.953836
     -3.333333     74.709992     74.709992    149.419985
     -3.304721     78.976041     78.976041    157.952081
     -3.276109     82.444809     82.444809    164.889618
     -3.247496     84.844801     84.844801    169.689601
     -3.218884     86.183969     86.183969    172.367937
     -3.190272     86.773662     86.773662    173.547324
     -3.161660     87.027582     87.027582    174.055164
     -3.133047     87.227050     87.227050    174.454100
     -3.104435     87.443415     87.443415    174.886830
     -3.075823     87.691452     87.691452    175.382905
     -3.047210     88.183702     88.183702    176.367405
     -3.018598     89.361684     89.361684    178.723367
     -2.989986     91.497010     91.497010    182.994019
     -2.961373     94.150457     94.150457    188.300914
     -2.932761     96.138423     96.138423    192.276847
     -2.904149     96.307743     96.307743    192.615485
     -2.875536     94.550719     94.550719    189.101437
     -2.846924     92.039998     92.039998    184.079996
     -2.818312     90.283323     90.283323    180.566647
     -2.789700     89.777560     89.777560    179.555120
     -2.761087     89.524166     89.524166    179.048332
     -2.732475     87.876732     87.876732    175.753463
     -2.703863     83.940897     83.940897    167.881793
     -2.675250     78.310645     78.310645    156.621290
     -2.646638     72.624751     72.624751    145.249501
     -2.618026     68.445137     68.445137    136.890274
     -2.589413     66.365488     66.365488    132.730975
     -2.560801     65.887018     65.887018    131.774037
     -2.532189     65.951312     65.951312    131.902625
     -2.503577     65.643945     65.643945    131.287891
     -2.474964     64.639860     64.639860    129.279720
     -2.446352     63.238743     63.238743    126.477485
     -2.417740     62.067115     62.067115    124.134230
     -2.389127     61.642794     61.642794    123.285589
     -2.360515     62.050974     62.050974    124.101948
     -2.331903     62.924762     62.924762    125.849524
     -2.303290     63.730761     63.730761    127.461522
     -2.274678     64.164792     64.164792    128.329583
     -2.246066     64.400666     64.400666    128.801331
     -2.217454     65.013444     65.013444    130.026888
     -2.188841     66.601781     66.601781    133.203563
     -2.160229     69.398294     69.398294    138.796588
     -2.131617     73.218170     73.218170    146.436340
     -2.103004     77.756528     77.756528    155.513056
     -2.074392     82.828251     82.828251    165.656502
     -2.045780     88.210404     88.210404    176.420808
     -2.017167     93.278277     93.278277    186.556554
     -1.988555     96.958604     96.958604    193.917207
     -1.959943     98.220257     98.220257    196.440515
     -1.931330     96.734134     96.734134    193.468268
     -1.902718     93.135269     93.135269    186.270539
     -1.874106     88.706435     88.706435    177.412869
     -1.845494     84.796977     84.796977    169.593953
     -1.816881     82.348027     82.348027    164.696054
     -1.788269     81.598602     81.598602    163.197203
     -1.759657     81.948085     81.948085    163.896170
     -1.731044     82.154009     82.154009    164.308018
     -1.702432     80.985879     80.985879    161.971758
     -1.673820     77.932728     77.932728    155.865455
     -1.645207     73.310378     73.310378    146.620757
     -1.616595     67.702994     67.702994    135.405988
     -1.587983     61.428624     61.428624    122.857248
     -1.559371     54.610461     54.610461    109.220923
     -1.530758     47.617190     47.617190     95.234380
     -1.502146     41.208105     41.208105     82.416209
     -1.473534     36.158582     36.158582     72.317163
     -1.444921     32.769425     32.769425     65.538850
     -1.416309     30.720166     30.720166     61.440333
     -1.387697     29.313069     29.313069     58.626139
     -1.359084     27.849740     27.849740     55.699480
     -1.330472     25.913034     25.913034     51.826069
     -1.301860     23.483893     23.483893     46.967786
     -1.273247     20.902474     20.902474     41.804947
     -1.244635     18.690802     18.690802     37.381604
     -1.216023     17.279129     17.279129     34.558259
     -1.187411     16.746194     16.746194     33.492387
     -1.158798     16.726529     16.726529     33.453057
     -1.130186     16.578032     16.578032     33.156064
     -1.101574     15.746855     15.746855     31.493710
     -1.072961     14.104908     14.104908     28.209816
     -1.044349     12.003533     12.003533     24.007066
     -1.015737      9.985723      9.985723     19.971446
     -0.987124      8.408454      8.408454     16.816909
     -0.958512      7.308384      7.308384     14.616768
     -0.929900      6.561738      6.561738     13.123477
     -0.901288      6.076072      6.076072     12.152143
     -0.872675      5.792813      5.792813     11.585626
     -0.844063      5.580985      5.580985     11.161970
     -0.815451      5.245909      5.245909     10.491819
     -0.786838      4.696512      4.696512      9.393025
     -0.758226      4.075963      4.075963      8.151926
     -0.729614      3.672108      3.672108      7.344216
     -0.701001      3.661430      3.661430      7.322860
     -0.672389      3.924209      3.924209      7.848418
     -0.643777      4.110419      4.110419      8.220838
     -0.615165      3.905543      3.905543      7.811086
     -0.586552      3.267154      3.267154      6.534309
     -0.557940      2.443239      2.443239      4.886477
     -0.529328      1.788881      1.788881      3.577762
     -0.500715      1.548627      1.548627      3.097254
     -0.472103      1.741250      1.741250      3.482500
     -0.443491      2.171714      2.171714      4.343429
     -0.414878      2.538813      2.538813      5.077626
     -0.386266      2.593280      2.593280      5.186559
     -0.357654      2.268294      2.268294      4.536588
     -0.329041      1.696002      1.696002      3.392003
     -0.300429      1.103016      1.103016      2.206032
