# EIG2DOS: Utility for SIESTA to obtain the electronic density of states
#  E. Artacho, Apr 1999, A. Garcia, Apr 2012
# ------------------------------------------
# Eigenvalues read from 3mos2-2graphene.EIG
# Using smearing parameter:   0.100
# Using    700 points in energy range
# Selected bands: 1 to: 3268
# Emin, emax in file for selected band(s):    -22.9903800    153.1458500
# Nbands, Nspin, Nk   =   3268     1    13
# E_F                 =    -4.7900 eV --> (shifted to ZERO)
# Broadening          =     0.1000 eV
#
#        E            N(up)  (=)   N(down)         Ntot
    -10.000000      4.948528      4.948528      9.897055
     -9.971388      3.842061      3.842061      7.684122
     -9.942775      3.488779      3.488779      6.977558
     -9.914163      3.797345      3.797345      7.594690
     -9.885551      4.569447      4.569447      9.138895
     -9.856938      5.658481      5.658481     11.316961
     -9.828326      6.989252      6.989252     13.978503
     -9.799714      8.446750      8.446750     16.893501
     -9.771102      9.776372      9.776372     19.552744
     -9.742489     10.616961     10.616961     21.233922
     -9.713877     10.650786     10.650786     21.301572
     -9.685265      9.759842      9.759842     19.519684
     -9.656652      8.094506      8.094506     16.189012
     -9.628040      6.024371      6.024371     12.048741
     -9.599428      3.996430      3.996430      7.992859
     -9.570815      2.374883      2.374883      4.749767
     -9.542203      1.359366      1.359366      2.718731
     -9.513591      1.029521      1.029521      2.059042
     -9.484979      1.461903      1.461903      2.923805
     -9.456366      2.794027      2.794027      5.588054
     -9.427754      5.135708      5.135708     10.271417
     -9.399142      8.349943      8.349943     16.699886
     -9.370529     11.873684     11.873684     23.747368
     -9.341917     14.790035     14.790035     29.580070
     -9.313305     16.204248     16.204248     32.408496
     -9.284692     15.712591     15.712591     31.425181
     -9.256080     13.633890     13.633890     27.267780
     -9.227468     10.834155     10.834155     21.668310
     -9.198856      8.274788      8.274788     16.549577
     -9.170243      6.589932      6.589932     13.179864
     -9.141631      5.921777      5.921777     11.843554
     -9.113019      6.017600      6.017600     12.035199
     -9.084406      6.438101      6.438101     12.876202
     -9.055794      6.761201      6.761201     13.522403
     -9.027182      6.771676      6.771676     13.543353
     -8.998569      6.610559      6.610559     13.221117
     -8.969957      6.749670      6.749670     13.499339
     -8.941345      7.690661      7.690661     15.381323
     -8.912732      9.535550      9.535550     19.071099
     -8.884120     11.784498     11.784498     23.568996
     -8.855508     13.603287     13.603287     27.206575
     -8.826896     14.403252     14.403252     28.806504
     -8.798283     14.255610     14.255610     28.511220
     -8.769671     13.768456     13.768456     27.536913
     -8.741059     13.531226     13.531226     27.062451
     -8.712446     13.626642     13.626642     27.253284
     -8.683834     13.636313     13.636313     27.272627
     -8.655222     13.093467     13.093467     26.186934
     -8.626609     11.921579     11.921579     23.843159
     -8.597997     10.455471     10.455471     20.910942
     -8.569385      9.112030      9.112030     18.224061
     -8.540773      8.129024      8.129024     16.258048
     -8.512160      7.615986      7.615986     15.231971
     -8.483548      7.715987      7.715987     15.431973
     -8.454936      8.555706      8.555706     17.111412
     -8.426323      9.999539      9.999539     19.999077
     -8.397711     11.540521     11.540521     23.081041
     -8.369099     12.530235     12.530235     25.060471
     -8.340486     12.554313     12.554313     25.108625
     -8.311874     11.616318     11.616318     23.232636
     -8.283262     10.052621     10.052621     20.105242
     -8.254649      8.376851      8.376851     16.753702
     -8.226037      7.193795      7.193795     14.387590
     -8.197425      7.089946      7.089946     14.179891
     -8.168813      8.379118      8.379118     16.758237
     -8.140200     10.808052     10.808052     21.616103
     -8.111588     13.517921     13.517921     27.035842
     -8.082976     15.453644     15.453644     30.907288
     -8.054363     16.035621     16.035621     32.071241
     -8.025751     15.574448     15.574448     31.148896
     -7.997139     15.006317     15.006317     30.012635
     -7.968526     15.090121     15.090121     30.180242
     -7.939914     15.738184     15.738184     31.476368
     -7.911302     16.079832     16.079832     32.159664
     -7.882690     15.199321     15.199321     30.398642
     -7.854077     12.891365     12.891365     25.782730
     -7.825465      9.819310      9.819310     19.638619
     -7.796853      7.037403      7.037403     14.074806
     -7.768240      5.332945      5.332945     10.665890
     -7.739628      4.854178      4.854178      9.708357
     -7.711016      5.178002      5.178002     10.356003
     -7.682403      5.692484      5.692484     11.384968
     -7.653791      6.040503      6.040503     12.081006
     -7.625179      6.350342      6.350342     12.700684
     -7.596567      7.096200      7.096200     14.192399
     -7.567954      8.692586      8.692586     17.385171
     -7.539342     11.141588     11.141588     22.283176
     -7.510730     13.997104     13.997104     27.994208
     -7.482117     16.626447     16.626447     33.252894
     -7.453505     18.523440     18.523440     37.046880
     -7.424893     19.459339     19.459339     38.918678
     -7.396280     19.451389     19.451389     38.902777
     -7.367668     18.653493     18.653493     37.306986
     -7.339056     17.255962     17.255962     34.511924
     -7.310443     15.421762     15.421762     30.843524
     -7.281831     13.265245     13.265245     26.530489
     -7.253219     10.880645     10.880645     21.761291
     -7.224607      8.412344      8.412344     16.824688
     -7.195994      6.122264      6.122264     12.244528
     -7.167382      4.392571      4.392571      8.785142
     -7.138770      3.638983      3.638983      7.277965
     -7.110157      4.164176      4.164176      8.328352
     -7.081545      6.002270      6.002270     12.004539
     -7.052933      8.825023      8.825023     17.650047
     -7.024320     12.011943     12.011943     24.023886
     -6.995708     14.920902     14.920902     29.841803
     -6.967096     17.194133     17.194133     34.388267
     -6.938484     18.828119     18.828119     37.656239
     -6.909871     19.952414     19.952414     39.904827
     -6.881259     20.596443     20.596443     41.192887
     -6.852647     20.724908     20.724908     41.449817
     -6.824034     20.454501     20.454501     40.909001
     -6.795422     20.117309     20.117309     40.234618
     -6.766810     20.045929     20.045929     40.091859
     -6.738197     20.330619     20.330619     40.661237
     -6.709585     20.845106     20.845106     41.690212
     -6.680973     21.515373     21.515373     43.030746
     -6.652361     22.524428     22.524428     45.048856
     -6.623748     24.228302     24.228302     48.456605
     -6.595136     26.885984     26.885984     53.771969
     -6.566524     30.491288     30.491288     60.982576
     -6.537911     34.843474     34.843474     69.686949
     -6.509299     39.715780     39.715780     79.431560
     -6.480687     44.901039     44.901039     89.802077
     -6.452074     50.096837     50.096837    100.193674
     -6.423462     54.825249     54.825249    109.650497
     -6.394850     58.598686     58.598686    117.197373
     -6.366237     61.276841     61.276841    122.553682
     -6.337625     63.273368     63.273368    126.546737
     -6.309013     65.337739     65.337739    130.675478
     -6.280401     68.064747     68.064747    136.129495
     -6.251788     71.610288     71.610288    143.220576
     -6.223176     75.909306     75.909306    151.818612
     -6.194564     81.160187     81.160187    162.320375
     -6.165951     88.028701     88.028701    176.057403
     -6.137339     97.264880     97.264880    194.529759
     -6.108727    108.955484    108.955484    217.910968
     -6.080114    121.947645    121.947645    243.895290
     -6.051502    133.886386    133.886386    267.772771
     -6.022890    141.978964    141.978964    283.957927
     -5.994278    144.209173    144.209173    288.418346
     -5.965665    140.389085    140.389085    280.778170
     -5.937053    132.383862    132.383862    264.767724
     -5.908441    123.261651    123.261651    246.523301
     -5.879828    115.788310    115.788310    231.576620
     -5.851216    111.111231    111.111231    222.222463
     -5.822604    108.379601    108.379601    216.759202
     -5.793991    105.527935    105.527935    211.055869
     -5.765379    100.758081    100.758081    201.516162
     -5.736767     93.736448     93.736448    187.472897
     -5.708155     85.648782     85.648782    171.297564
     -5.679542     78.161171     78.161171    156.322342
     -5.650930     72.279115     72.279115    144.558229
     -5.622318     68.054216     68.054216    136.108431
     -5.593705     65.094476     65.094476    130.188953
     -5.565093     63.054376     63.054376    126.108751
     -5.536481     61.563880     61.563880    123.127760
     -5.507868     59.937367     59.937367    119.874734
     -5.479256     57.341813     57.341813    114.683626
     -5.450644     53.468270     53.468270    106.936541
     -5.422031     48.968857     48.968857     97.937713
     -5.393419     45.058272     45.058272     90.116544
     -5.364807     42.611708     42.611708     85.223416
     -5.336195     41.636463     41.636463     83.272925
     -5.307582     41.513721     41.513721     83.027443
     -5.278970     41.601936     41.601936     83.203871
     -5.250358     41.619152     41.619152     83.238304
     -5.221745     41.648811     41.648811     83.297622
     -5.193133     41.961737     41.961737     83.923475
     -5.164521     42.853677     42.853677     85.707354
     -5.135908     44.607810     44.607810     89.215619
     -5.107296     47.601572     47.601572     95.203144
     -5.078684     52.404723     52.404723    104.809447
     -5.050072     59.643018     59.643018    119.286037
     -5.021459     69.647042     69.647042    139.294085
     -4.992847     82.191930     82.191930    164.383860
     -4.964235     96.533315     96.533315    193.066630
     -4.935622    111.603130    111.603130    223.206261
     -4.907010    126.144585    126.144585    252.289171
     -4.878398    138.791515    138.791515    277.583031
     -4.849785    148.225248    148.225248    296.450497
     -4.821173    153.408101    153.408101    306.816202
     -4.792561    153.763099    153.763099    307.526199
     -4.763948    149.224826    149.224826    298.449652
     -4.735336    140.191183    140.191183    280.382366
     -4.706724    127.439954    127.439954    254.879907
     -4.678112    112.082185    112.082185    224.164370
     -4.649499     95.591861     95.591861    191.183721
     -4.620887     79.797397     79.797397    159.594793
     -4.592275     66.587644     66.587644    133.175287
     -4.563662     57.274669     57.274669    114.549338
     -4.535050     52.005912     52.005912    104.011825
     -4.506438     49.781469     49.781469     99.562937
     -4.477825     49.175612     49.175612     98.351224
     -4.449213     49.232477     49.232477     98.464954
     -4.420601     49.910221     49.910221     99.820441
     -4.391989     51.934154     51.934154    103.868308
     -4.363376     56.374870     56.374870    112.749741
     -4.334764     64.250007     64.250007    128.500014
     -4.306152     76.157513     76.157513    152.315026
     -4.277539     91.844284     91.844284    183.688568
     -4.248927    109.830257    109.830257    219.660513
     -4.220315    127.441305    127.441305    254.882610
     -4.191702    141.485687    141.485687    282.971374
     -4.163090    149.348898    149.348898    298.697796
     -4.134478    149.919944    149.919944    299.839889
     -4.105866    143.875001    143.875001    287.750001
     -4.077253    133.283921    133.283921    266.567842
     -4.048641    120.823409    120.823409    241.646818
     -4.020029    108.913634    108.913634    217.827268
     -3.991416     99.043141     99.043141    198.086282
     -3.962804     91.527151     91.527151    183.054301
     -3.934192     85.800468     85.800468    171.600937
     -3.905579     81.027530     81.027530    162.055060
     -3.876967     76.626356     76.626356    153.252713
     -3.848355     72.483603     72.483603    144.967206
     -3.819742     68.913079     68.913079    137.826157
     -3.791130     66.431251     66.431251    132.862503
     -3.762518     65.365266     65.365266    130.730533
     -3.733906     65.492759     65.492759    130.985518
     -3.705293     66.082837     66.082837    132.165674
     -3.676681     66.392231     66.392231    132.784462
     -3.648069     66.123408     66.123408    132.246816
     -3.619456     65.353771     65.353771    130.707543
     -3.590844     64.098457     64.098457    128.196913
     -3.562232     62.122026     62.122026    124.244052
     -3.533619     59.264161     59.264161    118.528321
     -3.505007     55.887894     55.887894    111.775788
     -3.476395     52.925715     52.925715    105.851430
     -3.447783     51.436453     51.436453    102.872907
     -3.419170     52.007546     52.007546    104.015092
     -3.390558     54.410153     54.410153    108.820305
     -3.361946     57.754619     57.754619    115.509238
     -3.333333     61.106482     61.106482    122.212964
     -3.304721     64.140781     64.140781    128.281563
     -3.276109     67.245183     67.245183    134.490366
     -3.247496     70.915764     70.915764    141.831528
     -3.218884     75.037561     75.037561    150.075123
     -3.190272     78.804329     78.804329    157.608659
     -3.161660     81.303701     81.303701    162.607401
     -3.133047     82.075010     82.075010    164.150019
     -3.104435     81.152165     81.152165    162.304330
     -3.075823     78.847041     78.847041    157.694082
     -3.047210     75.743208     75.743208    151.486416
     -3.018598     72.875401     72.875401    145.750801
     -2.989986     71.669933     71.669933    143.339866
     -2.961373     73.423363     73.423363    146.846727
     -2.932761     78.569022     78.569022    157.138044
     -2.904149     86.238271     86.238271    172.476542
     -2.875536     94.529003     94.529003    189.058005
     -2.846924    101.463591    101.463591    202.927183
     -2.818312    106.013184    106.013184    212.026368
     -2.789700    108.338422    108.338422    216.676844
     -2.761087    109.021282    109.021282    218.042563
     -2.732475    108.062433    108.062433    216.124866
     -2.703863    104.686105    104.686105    209.372209
     -2.675250     98.177025     98.177025    196.354051
     -2.646638     88.942102     88.942102    177.884205
     -2.618026     78.772214     78.772214    157.544428
     -2.589413     69.999878     69.999878    139.999756
     -2.560801     64.196651     64.196651    128.393301
     -2.532189     61.434229     61.434229    122.868457
     -2.503577     60.653257     60.653257    121.306514
     -2.474964     60.740065     60.740065    121.480130
     -2.446352     61.334786     61.334786    122.669571
     -2.417740     62.732066     62.732066    125.464132
     -2.389127     65.141703     65.141703    130.283407
     -2.360515     68.136265     68.136265    136.272529
     -2.331903     70.818492     70.818492    141.636984
     -2.303290     72.466679     72.466679    144.933358
     -2.274678     72.966448     72.966448    145.932896
     -2.246066     72.631615     72.631615    145.263231
     -2.217454     71.676800     71.676800    143.353600
     -2.188841     69.914722     69.914722    139.829443
     -2.160229     66.982200     66.982200    133.964400
     -2.131617     62.919462     62.919462    125.838925
     -2.103004     58.640532     58.640532    117.281063
     -2.074392     55.882031     55.882031    111.764061
     -2.045780     56.552854     56.552854    113.105708
     -2.017167     61.794690     61.794690    123.589380
     -1.988555     71.245002     71.245002    142.490003
     -1.959943     82.936203     82.936203    165.872405
     -1.931330     94.012165     94.012165    188.024330
     -1.902718    101.961336    101.961336    203.922673
     -1.874106    105.604161    105.604161    211.208323
     -1.845494    105.212144    105.212144    210.424289
     -1.816881    101.917661    101.917661    203.835322
     -1.788269     97.109999     97.109999    194.219999
     -1.759657     92.151223     92.151223    184.302446
     -1.731044     88.113300     88.113300    176.226601
     -1.702432     85.329710     85.329710    170.659420
     -1.673820     83.174913     83.174913    166.349825
     -1.645207     80.544840     80.544840    161.089680
     -1.616595     76.742398     76.742398    153.484797
     -1.587983     71.904505     71.904505    143.809011
     -1.559371     66.597814     66.597814    133.195628
     -1.530758     61.178666     61.178666    122.357333
     -1.502146     55.696052     55.696052    111.392105
     -1.473534     50.307125     50.307125    100.614251
     -1.444921     45.503531     45.503531     91.007061
     -1.416309     41.781300     41.781300     83.562600
     -1.387697     39.169179     39.169179     78.338358
     -1.359084     37.188500     37.188500     74.376999
     -1.330472     35.255344     35.255344     70.510687
     -1.301860     33.065198     33.065198     66.130395
     -1.273247     30.631422     30.631422     61.262844
     -1.244635     28.070426     28.070426     56.140851
     -1.216023     25.422370     25.422370     50.844740
     -1.187411     22.667709     22.667709     45.335419
     -1.158798     19.868183     19.868183     39.736365
     -1.130186     17.234966     17.234966     34.469933
     -1.101574     15.010763     15.010763     30.021527
     -1.072961     13.282134     13.282134     26.564267
     -1.044349     11.943048     11.943048     23.886097
     -1.015737     10.842546     10.842546     21.685092
     -0.987124      9.912288      9.912288     19.824577
     -0.958512      9.126868      9.126868     18.253736
     -0.929900      8.409701      8.409701     16.819402
     -0.901288      7.667913      7.667913     15.335826
     -0.872675      6.928427      6.928427     13.856854
     -0.844063      6.372667      6.372667     12.745335
     -0.815451      6.170575      6.170575     12.341150
     -0.786838      6.259546      6.259546     12.519093
     -0.758226      6.307828      6.307828     12.615657
     -0.729614      5.935973      5.935973     11.871946
     -0.701001      5.012240      5.012240     10.024479
     -0.672389      3.760186      3.760186      7.520372
     -0.643777      2.601690      2.601690      5.203381
     -0.615165      1.892801      1.892801      3.785603
     -0.586552      1.749253      1.749253      3.498506
     -0.557940      2.027538      2.027538      4.055077
     -0.529328      2.421067      2.421067      4.842133
     -0.500715      2.616147      2.616147      5.232294
     -0.472103      2.445780      2.445780      4.891560
     -0.443491      1.957723      1.957723      3.915445
     -0.414878      1.352452      1.352452      2.704903
     -0.386266      0.847722      0.847722      1.695445
     -0.357654      0.576076      0.576076      1.152151
     -0.329041      0.562915      0.562915      1.125830
     -0.300429      0.750582      0.750582      1.501163
