# EIG2DOS: Utility for SIESTA to obtain the electronic density of states
#  E. Artacho, Apr 1999, A. Garcia, Apr 2012
# ------------------------------------------
# Eigenvalues read from 3mos2-2graphene.EIG
# Using smearing parameter:   0.100
# Using    700 points in energy range
# Selected bands: 1 to: 3268
# Emin, emax in file for selected band(s):    -22.9427300    153.1950400
# Nbands, Nspin, Nk   =   3268     1    13
# E_F                 =    -4.7508 eV --> (shifted to ZERO)
# Broadening          =     0.1000 eV
#
#        E            N(up)  (=)   N(down)         Ntot
    -10.000000      5.695240      5.695240     11.390480
     -9.971388      4.338732      4.338732      8.677464
     -9.942775      3.654208      3.654208      7.308417
     -9.914163      3.669739      3.669739      7.339477
     -9.885551      4.238763      4.238763      8.477525
     -9.856938      5.192210      5.192210     10.384419
     -9.828326      6.418363      6.418363     12.836727
     -9.799714      7.814527      7.814527     15.629054
     -9.771102      9.188338      9.188338     18.376677
     -9.742489     10.231880     10.231880     20.463759
     -9.713877     10.614037     10.614037     21.228074
     -9.685265     10.130231     10.130231     20.260461
     -9.656652      8.811112      8.811112     17.622224
     -9.628040      6.927291      6.927291     13.854583
     -9.599428      4.888542      4.888542      9.777084
     -9.570815      3.092817      3.092817      6.185633
     -9.542203      1.812286      1.812286      3.624572
     -9.513591      1.182546      1.182546      2.365092
     -9.484979      1.284901      1.284901      2.569802
     -9.456366      2.230253      2.230253      4.460507
     -9.427754      4.135986      4.135986      8.271972
     -9.399142      6.965981      6.965981     13.931961
     -9.370529     10.339462     10.339462     20.678924
     -9.341917     13.498588     13.498588     26.997176
     -9.313305     15.550764     15.550764     31.101529
     -9.284692     15.888709     15.888709     31.777418
     -9.256080     14.517078     14.517078     29.034156
     -9.227468     12.053850     12.053850     24.107699
     -9.198856      9.406492      9.406492     18.812983
     -9.170243      7.345283      7.345283     14.690567
     -9.141631      6.228798      6.228798     12.457597
     -9.113019      5.982522      5.982522     11.965043
     -9.084406      6.253326      6.253326     12.506652
     -9.055794      6.614341      6.614341     13.228683
     -9.027182      6.762591      6.762591     13.525181
     -8.998569      6.685218      6.685218     13.370437
     -8.969957      6.706550      6.706550     13.413100
     -8.941345      7.305865      7.305865     14.611729
     -8.912732      8.749526      8.749526     17.499051
     -8.884120     10.799917     10.799917     21.599835
     -8.855508     12.782819     12.782819     25.565637
     -8.826896     14.021117     14.021117     28.042234
     -8.798283     14.303263     14.303263     28.606526
     -8.769671     13.988277     13.988277     27.976555
     -8.741059     13.653123     13.653123     27.306246
     -8.712446     13.594824     13.594824     27.189649
     -8.683834     13.625125     13.625125     27.250249
     -8.655222     13.314690     13.314690     26.629379
     -8.626609     12.421948     12.421948     24.843895
     -8.597997     11.094097     11.094097     22.188195
     -8.569385      9.702744      9.702744     19.405489
     -8.540773      8.563949      8.563949     17.127897
     -8.512160      7.849754      7.849754     15.699508
     -8.483548      7.689685      7.689685     15.379370
     -8.454936      8.208987      8.208987     16.417975
     -8.426323      9.378087      9.378087     18.756173
     -8.397711     10.855988     10.855988     21.711977
     -8.369099     12.070787     12.070787     24.141574
     -8.340486     12.516729     12.516729     25.033458
     -8.311874     12.011510     12.011510     24.023020
     -8.283262     10.735258     10.735258     21.470516
     -8.254649      9.118606      9.118606     18.237211
     -8.226037      7.728307      7.728307     15.456613
     -8.197425      7.159749      7.159749     14.319497
     -8.168813      7.840921      7.840921     15.681841
     -8.140200      9.760528      9.760528     19.521055
     -8.111588     12.326770     12.326770     24.653541
     -8.082976     14.583475     14.583475     29.166949
     -8.054363     15.757712     15.757712     31.515423
     -8.025751     15.772265     15.772265     31.544531
     -7.997139     15.273367     15.273367     30.546735
     -7.968526     15.076241     15.076241     30.152481
     -7.939914     15.457513     15.457513     30.915026
     -7.911302     15.905071     15.905071     31.810142
     -7.882690     15.546165     15.546165     31.092330
     -7.854077     13.873652     13.873652     27.747305
     -7.825465     11.159745     11.159745     22.319490
     -7.796853      8.270014      8.270014     16.540028
     -7.768240      6.099368      6.099368     12.198737
     -7.739628      5.077580      5.077580     10.155160
     -7.711016      5.038975      5.038975     10.077951
     -7.682403      5.462350      5.462350     10.924699
     -7.653791      5.884575      5.884575     11.769150
     -7.625179      6.221007      6.221007     12.442015
     -7.596567      6.787452      6.787452     13.574905
     -7.567954      8.016204      8.016204     16.032407
     -7.539342     10.086955     10.086955     20.173909
     -7.510730     12.753698     12.753698     25.507396
     -7.482117     15.471247     15.471247     30.942493
     -7.453505     17.681024     17.681024     35.362047
     -7.424893     19.033421     19.033421     38.066841
     -7.396280     19.438612     19.438612     38.877225
     -7.367668     18.990572     18.990572     37.981144
     -7.339056     17.860823     17.860823     35.721645
     -7.310443     16.220234     16.220234     32.440468
     -7.281831     14.203166     14.203166     28.406333
     -7.253219     11.915650     11.915650     23.831301
     -7.224607      9.484579      9.484579     18.969158
     -7.195994      7.122370      7.122370     14.244740
     -7.167382      5.156851      5.156851     10.313701
     -7.138770      3.985850      3.985850      7.971701
     -7.110157      3.958797      3.958797      7.917594
     -7.081545      5.225330      5.225330     10.450661
     -7.052933      7.616080      7.616080     15.232161
     -7.024320     10.644729     10.644729     21.289459
     -6.995708     13.690120     13.690120     27.380239
     -6.967096     16.277016     16.277016     32.554031
     -6.938484     18.239107     18.239107     36.478213
     -6.909871     19.628562     19.628562     39.257125
     -6.881259     20.505651     20.505651     41.011303
     -6.852647     20.873939     20.873939     41.747878
     -6.824034     20.826705     20.826705     41.653410
     -6.795422     20.689896     20.689896     41.379793
     -6.766810     20.953344     20.953344     41.906687
     -6.738197     22.041645     22.041645     44.083290
     -6.709585     24.131311     24.131311     48.262623
     -6.680973     27.115380     27.115380     54.230760
     -6.652361     30.665474     30.665474     61.330949
     -6.623748     34.347167     34.347167     68.694333
     -6.595136     37.801921     37.801921     75.603841
     -6.566524     40.932281     40.932281     81.864561
     -6.537911     43.917837     43.917837     87.835675
     -6.509299     47.007040     47.007040     94.014081
     -6.480687     50.304227     50.304227    100.608454
     -6.452074     53.797422     53.797422    107.594844
     -6.423462     57.541203     57.541203    115.082405
     -6.394850     61.672771     61.672771    123.345541
     -6.366237     66.172765     66.172765    132.345530
     -6.337625     70.687323     70.687323    141.374646
     -6.309013     74.733593     74.733593    149.467185
     -6.280401     78.179094     78.179094    156.358187
     -6.251788     81.553477     81.553477    163.106954
     -6.223176     85.903977     85.903977    171.807954
     -6.194564     92.309930     92.309930    184.619860
     -6.165951    101.353588    101.353588    202.707176
     -6.137339    112.728901    112.728901    225.457802
     -6.108727    125.076719    125.076719    250.153438
     -6.080114    136.189764    136.189764    272.379528
     -6.051502    143.667687    143.667687    287.335374
     -6.022890    145.794087    145.794087    291.588173
     -5.994278    142.188214    142.188214    284.376428
     -5.965665    133.946675    133.946675    267.893350
     -5.937053    123.295095    123.295095    246.590191
     -5.908441    112.857283    112.857283    225.714566
     -5.879828    104.659015    104.659015    209.318030
     -5.851216     99.235630     99.235630    198.471260
     -5.822604     95.468672     95.468672    190.937344
     -5.793991     91.461236     91.461236    182.922472
     -5.765379     85.935702     85.935702    171.871403
     -5.736767     79.138716     79.138716    158.277431
     -5.708155     72.630289     72.630289    145.260579
     -5.679542     68.191020     68.191020    136.382040
     -5.650930     66.608780     66.608780    133.217561
     -5.622318     67.061857     67.061857    134.123713
     -5.593705     67.459440     67.459440    134.918879
     -5.565093     65.611730     65.611730    131.223459
     -5.536481     60.565667     60.565667    121.131333
     -5.507868     53.207997     53.207997    106.415994
     -5.479256     45.690948     45.690948     91.381895
     -5.450644     40.136328     40.136328     80.272656
     -5.422031     37.588085     37.588085     75.176171
     -5.393419     37.820357     37.820357     75.640714
     -5.364807     39.827170     39.827170     79.654340
     -5.336195     42.432817     42.432817     84.865634
     -5.307582     44.665134     44.665134     89.330269
     -5.278970     45.893115     45.893115     91.786230
     -5.250358     45.898227     45.898227     91.796455
     -5.221745     45.011204     45.011204     90.022409
     -5.193133     44.254445     44.254445     88.508889
     -5.164521     45.231551     45.231551     90.463102
     -5.135908     49.607543     49.607543     99.215087
     -5.107296     58.424350     58.424350    116.848699
     -5.078684     71.689029     71.689029    143.378058
     -5.050072     88.375799     88.375799    176.751597
     -5.021459    106.632312    106.632312    213.264625
     -4.992847    124.047914    124.047914    248.095827
     -4.964235    138.111466    138.111466    276.222933
     -4.935622    146.938240    146.938240    293.876479
     -4.907010    149.953835    149.953835    299.907670
     -4.878398    148.010687    148.010687    296.021375
     -4.849785    142.757768    142.757768    285.515536
     -4.821173    135.689545    135.689545    271.379090
     -4.792561    127.529541    127.529541    255.059081
     -4.763948    118.276604    118.276604    236.553207
     -4.735336    107.753768    107.753768    215.507537
     -4.706724     96.215047     96.215047    192.430095
     -4.678112     84.558722     84.558722    169.117445
     -4.649499     73.973411     73.973411    147.946823
     -4.620887     65.295641     65.295641    130.591282
     -4.592275     58.611795     58.611795    117.223589
     -4.563662     53.417430     53.417430    106.834861
     -4.535050     49.172101     49.172101     98.344202
     -4.506438     45.818958     45.818958     91.637916
     -4.477825     43.966584     43.966584     87.933168
     -4.449213     44.757429     44.757429     89.514857
     -4.420601     49.614212     49.614212     99.228424
     -4.391989     59.885056     59.885056    119.770112
     -4.363376     76.180351     76.180351    152.360702
     -4.334764     97.422373     97.422373    194.844747
     -4.306152    120.285893    120.285893    240.571786
     -4.277539    139.928660    139.928660    279.857319
     -4.248927    152.006246    152.006246    304.012491
     -4.220315    154.666613    154.666613    309.333227
     -4.191702    149.076742    149.076742    298.153483
     -4.163090    138.327361    138.327361    276.654722
     -4.134478    125.789228    125.789228    251.578456
     -4.105866    113.943422    113.943422    227.886845
     -4.077253    103.948371    103.948371    207.896742
     -4.048641     95.819195     95.819195    191.638391
     -4.020029     89.061651     89.061651    178.123302
     -3.991416     83.387540     83.387540    166.775080
     -3.962804     78.953702     78.953702    157.907404
     -3.934192     75.964957     75.964957    151.929914
     -3.905579     74.168885     74.168885    148.337771
     -3.876967     72.863749     72.863749    145.727498
     -3.848355     71.404862     71.404862    142.809723
     -3.819742     69.653947     69.653947    139.307895
     -3.791130     67.955957     67.955957    135.911914
     -3.762518     66.728333     66.728333    133.456666
     -3.733906     66.043566     66.043566    132.087133
     -3.705293     65.528175     65.528175    131.056351
     -3.676681     64.625400     64.625400    129.250800
     -3.648069     62.967780     62.967780    125.935559
     -3.619456     60.535805     60.535805    121.071609
     -3.590844     57.548953     57.548953    115.097906
     -3.562232     54.347003     54.347003    108.694005
     -3.533619     51.460052     51.460052    102.920104
     -3.505007     49.688771     49.688771     99.377541
     -3.476395     49.851981     49.851981     99.703962
     -3.447783     52.233903     52.233903    104.467806
     -3.419170     56.271979     56.271979    112.543957
     -3.390558     60.931242     60.931242    121.862483
     -3.361946     65.463968     65.463968    130.927935
     -3.333333     69.764727     69.764727    139.529453
     -3.304721     74.011736     74.011736    148.023471
     -3.276109     78.133418     78.133418    156.266836
     -3.247496     81.715613     81.715613    163.431226
     -3.218884     84.271366     84.271366    168.542732
     -3.190272     85.408013     85.408013    170.816025
     -3.161660     84.803957     84.803957    169.607913
     -3.133047     82.326436     82.326436    164.652871
     -3.104435     78.432980     78.432980    156.865960
     -3.075823     74.499101     74.499101    148.998202
     -3.047210     72.549072     72.549072    145.098143
     -3.018598     74.261623     74.261623    148.523245
     -2.989986     79.811388     79.811388    159.622776
     -2.961373     87.513168     87.513168    175.026336
     -2.932761     94.796070     94.796070    189.592139
     -2.904149     99.880419     99.880419    199.760838
     -2.875536    102.743405    102.743405    205.486811
     -2.846924    104.516814    104.516814    209.033628
     -2.818312    105.932786    105.932786    211.865571
     -2.789700    106.322418    106.322418    212.644835
     -2.761087    104.098434    104.098434    208.196868
     -2.732475     98.247067     98.247067    196.494134
     -2.703863     89.458196     89.458196    178.916392
     -2.675250     79.893583     79.893583    159.787166
     -2.646638     71.832711     71.832711    143.665423
     -2.618026     66.389221     66.389221    132.778443
     -2.589413     63.293343     63.293343    126.586685
     -2.560801     61.669588     61.669588    123.339177
     -2.532189     60.919453     60.919453    121.838907
     -2.503577     60.965371     60.965371    121.930743
     -2.474964     61.875338     61.875338    123.750676
     -2.446352     63.427272     63.427272    126.854545
     -2.417740     65.082839     65.082839    130.165679
     -2.389127     66.364817     66.364817    132.729634
     -2.360515     67.234968     67.234968    134.469937
     -2.331903     68.055584     68.055584    136.111168
     -2.303290     69.107413     69.107413    138.214825
     -2.274678     70.114750     70.114750    140.229500
     -2.246066     70.300791     70.300791    140.601581
     -2.217454     69.006362     69.006362    138.012725
     -2.188841     66.344075     66.344075    132.688150
     -2.160229     63.347609     63.347609    126.695219
     -2.131617     61.572463     61.572463    123.144925
     -2.103004     62.484289     62.484289    124.968578
     -2.074392     66.892805     66.892805    133.785611
     -2.045780     74.502026     74.502026    149.004053
     -2.017167     83.749881     83.749881    167.499762
     -1.988555     92.259012     92.259012    184.518025
     -1.959943     97.903591     97.903591    195.807182
     -1.931330     99.860284     99.860284    199.720568
     -1.902718     98.849903     98.849903    197.699807
     -1.874106     96.429159     96.429159    192.858317
     -1.845494     93.976179     93.976179    187.952359
     -1.816881     92.107286     92.107286    184.214571
     -1.788269     90.719140     90.719140    181.438280
     -1.759657     89.346940     89.346940    178.693879
     -1.731044     87.474518     87.474518    174.949037
     -1.702432     84.679671     84.679671    169.359341
     -1.673820     80.697845     80.697845    161.395690
     -1.645207     75.476128     75.476128    150.952255
     -1.616595     69.199371     69.199371    138.398742
     -1.587983     62.278038     62.278038    124.556076
     -1.559371     55.323474     55.323474    110.646948
     -1.530758     49.063141     49.063141     98.126281
     -1.502146     44.102857     44.102857     88.205714
     -1.473534     40.615223     40.615223     81.230446
     -1.444921     38.228090     38.228090     76.456180
     -1.416309     36.266953     36.266953     72.533907
     -1.387697     34.168717     34.168717     68.337435
     -1.359084     31.746905     31.746905     63.493809
     -1.330472     29.169722     29.169722     58.339445
     -1.301860     26.742369     26.742369     53.484739
     -1.273247     24.661313     24.661313     49.322626
     -1.244635     22.884013     22.884013     45.768025
     -1.216023     21.193172     21.193172     42.386343
     -1.187411     19.399992     19.399992     38.799984
     -1.158798     17.496340     17.496340     34.992681
     -1.130186     15.608332     15.608332     31.216664
     -1.101574     13.827006     13.827006     27.654012
     -1.072961     12.135219     12.135219     24.270438
     -1.044349     10.515194     10.515194     21.030387
     -1.015737      9.072781      9.072781     18.145561
     -0.987124      7.984533      7.984533     15.969067
     -0.958512      7.308049      7.308049     14.616098
     -0.929900      6.887091      6.887091     13.774182
     -0.901288      6.482247      6.482247     12.964493
     -0.872675      5.993383      5.993383     11.986765
     -0.844063      5.534810      5.534810     11.069621
     -0.815451      5.288209      5.288209     10.576418
     -0.786838      5.285768      5.285768     10.571536
     -0.758226      5.329959      5.329959     10.659918
     -0.729614      5.120793      5.120793     10.241586
     -0.701001      4.483015      4.483015      8.966030
     -0.672389      3.507513      3.507513      7.015027
     -0.643777      2.500172      2.500172      5.000344
     -0.615165      1.794625      1.794625      3.589251
     -0.586552      1.574144      1.574144      3.148287
     -0.557940      1.797004      1.797004      3.594007
     -0.529328      2.230305      2.230305      4.460611
     -0.500715      2.564425      2.564425      5.128850
     -0.472103      2.567409      2.567409      5.134817
     -0.443491      2.200680      2.200680      4.401360
     -0.414878      1.616280      1.616280      3.232559
     -0.386266      1.042701      1.042701      2.085402
     -0.357654      0.657469      0.657469      1.314938
     -0.329041      0.531266      0.531266      1.062532
     -0.300429      0.639837      0.639837      1.279674
