# EIG2DOS: Utility for SIESTA to obtain the electronic density of states
#  E. Artacho, Apr 1999, A. Garcia, Apr 2012
# ------------------------------------------
# Eigenvalues read from 3mos2-2graphene.EIG
# Using smearing parameter:   0.100
# Using    700 points in energy range
# Selected bands: 1 to: 3268
# Emin, emax in file for selected band(s):    -22.9864200    153.1499200
# Nbands, Nspin, Nk   =   3268     1    13
# E_F                 =    -4.7860 eV --> (shifted to ZERO)
# Broadening          =     0.1000 eV
#
#        E            N(up)  (=)   N(down)         Ntot
    -10.000000      4.952500      4.952500      9.905000
     -9.971388      3.845182      3.845182      7.690364
     -9.942775      3.490332      3.490332      6.980665
     -9.914163      3.797386      3.797386      7.594772
     -9.885551      4.568479      4.568479      9.136958
     -9.856938      5.656882      5.656882     11.313763
     -9.828326      6.987021      6.987021     13.974041
     -9.799714      8.443801      8.443801     16.887603
     -9.771102      9.773013      9.773013     19.546026
     -9.742489     10.614013     10.614013     21.228025
     -9.713877     10.649226     10.649226     21.298451
     -9.685265      9.760319      9.760319     19.520638
     -9.656652      8.097041      8.097041     16.194082
     -9.628040      6.028341      6.028341     12.056682
     -9.599428      4.000823      4.000823      8.001647
     -9.570815      2.378743      2.378743      4.757485
     -9.542203      1.362158      1.362158      2.724316
     -9.513591      1.031159      1.031159      2.062318
     -9.484979      1.462407      1.462407      2.924814
     -9.456366      2.793131      2.793131      5.586261
     -9.427754      5.132799      5.132799     10.265598
     -9.399142      8.344551      8.344551     16.689101
     -9.370529     11.866261     11.866261     23.732522
     -9.341917     14.782343     14.782343     29.564687
     -9.313305     16.198775     16.198775     32.397551
     -9.284692     15.711227     15.711227     31.422455
     -9.256080     13.636816     13.636816     27.273632
     -9.227468     10.839781     10.839781     21.679563
     -9.198856      8.280744      8.280744     16.561488
     -9.170243      6.594315      6.594315     13.188630
     -9.141631      5.923841      5.923841     11.847682
     -9.113019      6.017658      6.017658     12.035317
     -9.084406      6.437069      6.437069     12.874137
     -9.055794      6.760199      6.760199     13.520397
     -9.027182      6.771653      6.771653     13.543307
     -8.998569      6.611757      6.611757     13.223515
     -8.969957      6.751214      6.751214     13.502428
     -8.941345      7.690881      7.690881     15.381763
     -8.912732      9.533144      9.533144     19.066288
     -8.884120     11.779741     11.779741     23.559482
     -8.855508     13.598141     13.598141     27.196283
     -8.826896     14.400028     14.400028     28.800056
     -8.798283     14.255193     14.255193     28.510386
     -8.769671     13.769708     13.769708     27.539416
     -8.741059     13.532156     13.532156     27.064311
     -8.712446     13.626241     13.626241     27.252482
     -8.683834     13.635324     13.635324     27.270649
     -8.655222     13.093447     13.093447     26.186894
     -8.626609     11.923312     11.923312     23.846624
     -8.597997     10.458377     10.458377     20.916755
     -8.569385      9.115015      9.115015     18.230031
     -8.540773      8.131541      8.131541     16.263081
     -8.512160      7.618030      7.618030     15.236060
     -8.483548      7.717294      7.717294     15.434588
     -8.454936      8.555474      8.555474     17.110948
     -8.426323      9.997220      9.997220     19.994440
     -8.397711     11.536749     11.536749     23.073498
     -8.369099     12.526683     12.526683     25.053366
     -8.340486     12.552558     12.552558     25.105117
     -8.311874     11.616934     11.616934     23.233867
     -8.283262     10.055215     10.055215     20.110429
     -8.254649      8.380568      8.380568     16.761137
     -8.226037      7.197499      7.197499     14.394999
     -8.197425      7.092167      7.092167     14.184334
     -8.168813      8.378418      8.378418     16.756836
     -8.140200     10.803964     10.803964     21.607928
     -8.111588     13.511754     13.511754     27.023507
     -8.082976     15.448150     15.448150     30.896299
     -8.054363     16.033305     16.033305     32.066609
     -8.025751     15.575655     15.575655     31.151310
     -7.997139     15.008861     15.008861     30.017723
     -7.968526     15.091088     15.091088     30.182175
     -7.939914     15.736465     15.736465     31.472929
     -7.911302     16.077100     16.077100     32.154199
     -7.882690     15.198552     15.198552     30.397104
     -7.854077     12.894333     12.894333     25.788666
     -7.825465      9.825289      9.825289     19.650578
     -7.796853      7.043928      7.043928     14.087856
     -7.768240      5.337592      5.337592     10.675184
     -7.739628      4.855913      4.855913      9.711827
     -7.711016      5.177443      5.177443     10.354886
     -7.682403      5.691233      5.691233     11.382466
     -7.653791      6.039982      6.039982     12.079964
     -7.625179      6.350796      6.350796     12.701591
     -7.596567      7.096561      7.096561     14.193121
     -7.567954      8.691366      8.691366     17.382732
     -7.539342     11.138071     11.138071     22.276142
     -7.510730     13.991860     13.991860     27.983720
     -7.482117     16.620853     16.620853     33.241705
     -7.453505     18.518808     18.518808     37.037617
     -7.424893     19.456399     19.456399     38.912798
     -7.396280     19.450288     19.450288     38.900576
     -7.367668     18.654018     18.654018     37.308035
     -7.339056     17.257737     17.257737     34.515473
     -7.310443     15.424413     15.424413     30.848826
     -7.281831     13.268532     13.268532     26.537064
     -7.253219     10.884496     10.884496     21.768992
     -7.224607      8.416719      8.416719     16.833439
     -7.195994      6.126926      6.126926     12.253851
     -7.167382      4.396938      4.396938      8.793876
     -7.138770      3.642215      3.642215      7.284431
     -7.110157      4.165418      4.165418      8.330837
     -7.081545      6.000998      6.000998     12.001996
     -7.052933      8.821498      8.821498     17.642996
     -7.024320     12.007493     12.007493     24.014986
     -6.995708     14.917526     14.917526     29.835052
     -6.967096     17.193384     17.193384     34.386767
     -6.938484     18.830178     18.830178     37.660357
     -6.909871     19.956317     19.956317     39.912633
     -6.881259     20.601177     20.601177     41.202354
     -6.852647     20.730184     20.730184     41.460368
     -6.824034     20.460810     20.460810     40.921620
     -6.795422     20.126681     20.126681     40.253362
     -6.766810     20.065407     20.065407     40.130814
     -6.738197     20.378686     20.378686     40.757372
     -6.709585     20.957772     20.957772     41.915544
     -6.680973     21.745257     21.745257     43.490515
     -6.652361     22.925949     22.925949     45.851898
     -6.623748     24.829079     24.829079     49.658159
     -6.595136     27.659275     27.659275     55.318551
     -6.566524     31.354853     31.354853     62.709705
     -6.537911     35.696685     35.696685     71.393371
     -6.509299     40.489070     40.489070     80.978139
     -6.480687     45.570719     45.570719     91.141438
     -6.452074     50.654830     50.654830    101.309659
     -6.423462     55.254713     55.254713    110.509425
     -6.394850     58.904821     58.904821    117.809642
     -6.366237     61.540911     61.540911    123.081822
     -6.337625     63.643035     63.643035    127.286070
     -6.309013     65.928052     65.928052    131.856104
     -6.280401     68.858260     68.858260    137.716520
     -6.251788     72.468005     72.468005    144.936010
     -6.223176     76.697868     76.697868    153.395735
     -6.194564     81.880395     81.880395    163.760789
     -6.165951     88.826405     88.826405    177.652810
     -6.137339     98.314858     98.314858    196.629716
     -6.108727    110.314692    110.314692    220.629384
     -6.080114    123.485386    123.485386    246.970772
     -6.051502    135.332090    135.332090    270.664180
     -6.022890    143.051080    143.051080    286.102160
     -5.994278    144.743647    144.743647    289.487293
     -5.965665    140.389601    140.389601    280.779202
     -5.937053    131.972487    131.972487    263.944975
     -5.908441    122.582553    122.582553    245.165105
     -5.879828    114.941179    114.941179    229.882359
     -5.851216    110.142223    110.142223    220.284446
     -5.822604    107.299774    107.299774    214.599549
     -5.793991    104.331318    104.331318    208.662637
     -5.765379     99.446667     99.446667    198.893334
     -5.736767     92.354015     92.354015    184.708029
     -5.708155     84.293103     84.293103    168.586207
     -5.679542     76.959290     76.959290    153.918580
     -5.650930     71.356265     71.356265    142.712530
     -5.622318     67.515911     67.515911    135.031821
     -5.593705     64.987328     64.987328    129.974655
     -5.565093     63.286276     63.286276    126.572552
     -5.536481     61.858750     61.858750    123.717499
     -5.507868     59.930185     59.930185    119.860370
     -5.479256     56.795200     56.795200    113.590401
     -5.450644     52.438452     52.438452    104.876903
     -5.422031     47.767124     47.767124     95.534249
     -5.393419     44.043523     44.043523     88.087046
     -5.364807     41.994817     41.994817     83.989635
     -5.336195     41.429795     41.429795     82.859590
     -5.307582     41.607845     41.607845     83.215690
     -5.278970     41.866665     41.866665     83.733330
     -5.250358     41.953671     41.953671     83.907342
     -5.221745     41.977704     41.977704     83.955408
     -5.193133     42.222220     42.222220     84.444441
     -5.164521     43.018070     43.018070     86.036139
     -5.135908     44.739284     44.739284     89.478567
     -5.107296     47.888807     47.888807     95.777614
     -5.078684     53.120053     53.120053    106.240105
     -5.050072     61.033391     61.033391    122.066781
     -5.021459     71.830873     71.830873    143.661745
     -4.992847     85.120521     85.120521    170.241042
     -4.964235    100.001718    100.001718    200.003436
     -4.935622    115.260402    115.260402    230.520805
     -4.907010    129.504229    129.504229    259.008458
     -4.878398    141.304873    141.304873    282.609745
     -4.849785    149.450333    149.450333    298.900666
     -4.821173    153.194217    153.194217    306.388434
     -4.792561    152.309170    152.309170    304.618340
     -4.763948    146.952506    146.952506    293.905011
     -4.735336    137.530562    137.530562    275.061125
     -4.706724    124.690256    124.690256    249.380513
     -4.678112    109.420678    109.420678    218.841356
     -4.649499     93.166427     93.166427    186.332855
     -4.620887     77.783953     77.783953    155.567907
     -4.592275     65.148073     65.148073    130.296147
     -4.563662     56.449712     56.449712    112.899423
     -4.535050     51.644142     51.644142    103.288284
     -4.506438     49.589972     49.589972     99.179944
     -4.477825     48.882585     48.882585     97.765169
     -4.449213     48.752960     48.752960     97.505920
     -4.420601     49.401462     49.401462     98.802925
     -4.391989     51.725292     51.725292    103.450584
     -4.363376     56.848359     56.848359    113.696719
     -4.334764     65.738571     65.738571    131.477142
     -4.306152     78.839318     78.839318    157.678635
     -4.277539     95.603275     95.603275    191.206550
     -4.248927    114.143735    114.143735    228.287469
     -4.220315    131.439127    131.439127    262.878254
     -4.191702    144.246120    144.246120    288.492241
     -4.163090    150.291361    150.291361    300.582722
     -4.134478    149.039927    149.039927    298.079855
     -4.105866    141.679012    141.679012    283.358024
     -4.077253    130.505612    130.505612    261.011223
     -4.048641    118.117148    118.117148    236.234297
     -4.020029    106.668585    106.668585    213.337170
     -3.991416     97.353319     97.353319    194.706639
     -3.962804     90.285741     90.285741    180.571482
     -3.934192     84.848766     84.848766    169.697533
     -3.905579     80.266945     80.266945    160.533889
     -3.876967     76.036654     76.036654    152.073307
     -3.848355     72.075952     72.075952    144.151905
     -3.819742     68.688907     68.688907    137.377813
     -3.791130     66.373002     66.373002    132.746004
     -3.762518     65.433906     65.433906    130.867813
     -3.733906     65.621595     65.621595    131.243190
     -3.705293     66.190036     66.190036    132.380071
     -3.676681     66.414895     66.414895    132.829790
     -3.648069     66.035955     66.035955    132.071911
     -3.619456     65.147239     65.147239    130.294479
     -3.590844     63.751565     63.751565    127.503130
     -3.562232     61.608202     61.608202    123.216403
     -3.533619     58.593976     58.593976    117.187952
     -3.505007     55.148250     55.148250    110.296501
     -3.476395     52.281212     52.281212    104.562425
     -3.447783     51.077360     51.077360    102.154721
     -3.419170     52.054164     52.054164    104.108327
     -3.390558     54.832079     54.832079    109.664158
     -3.361946     58.390007     58.390007    116.780014
     -3.333333     61.792873     61.792873    123.585745
     -3.304721     64.839747     64.839747    129.679493
     -3.276109     68.025608     68.025608    136.051216
     -3.247496     71.814429     71.814429    143.628858
     -3.218884     75.962274     75.962274    151.924549
     -3.190272     79.588210     79.588210    159.176420
     -3.161660     81.830143     81.830143    163.660286
     -3.133047     82.322936     82.322936    164.645873
     -3.104435     81.140272     81.140272    162.280543
     -3.075823     78.591611     78.591611    157.183222
     -3.047210     75.309202     75.309202    150.618405
     -3.018598     72.460700     72.460700    144.921401
     -2.989986     71.596667     71.596667    143.193334
     -2.961373     73.982675     73.982675    147.965350
     -2.932761     79.804896     79.804896    159.609792
     -2.904149     87.848721     87.848721    175.697443
     -2.875536     96.010682     96.010682    192.021363
     -2.846924    102.424741    102.424741    204.849482
     -2.818312    106.398615    106.398615    212.797231
     -2.789700    108.363034    108.363034    216.726068
     -2.761087    108.880668    108.880668    217.761336
     -2.732475    107.706732    107.706732    215.413464
     -2.703863    103.879583    103.879583    207.759165
     -2.675250     96.785243     96.785243    193.570487
     -2.646638     87.163200     87.163200    174.326399
     -2.618026     77.076056     77.076056    154.152113
     -2.589413     68.817426     68.817426    137.634852
     -2.560801     63.638976     63.638976    127.277952
     -2.532189     61.283683     61.283683    122.567367
     -2.503577     60.607926     60.607926    121.215851
     -2.474964     60.670262     60.670262    121.340524
     -2.446352     61.327978     61.327978    122.655956
     -2.417740     62.919789     62.919789    125.839577
     -2.389127     65.501237     65.501237    131.002474
     -2.360515     68.463133     68.463133    136.926266
     -2.331903     70.890110     70.890110    141.780220
     -2.303290     72.235081     72.235081    144.470163
     -2.274678     72.593959     72.593959    145.187918
     -2.246066     72.336803     72.336803    144.673605
     -2.217454     71.542273     71.542273    143.084546
     -2.188841     69.840703     69.840703    139.681406
     -2.160229     66.820252     66.820252    133.640504
     -2.131617     62.649728     62.649728    125.299456
     -2.103004     58.435486     58.435486    116.870972
     -2.074392     56.022719     56.022719    112.045438
     -2.045780     57.275550     57.275550    114.551099
     -2.017167     63.152736     63.152736    126.305471
     -1.988555     73.033954     73.033954    146.067909
     -1.959943     84.726597     84.726597    169.453194
     -1.931330     95.317575     95.317575    190.635150
     -1.902718    102.473909    102.473909    204.947819
     -1.874106    105.336508    105.336508    210.673016
     -1.845494    104.440158    104.440158    208.880317
     -1.816881    100.994614    100.994614    201.989228
     -1.788269     96.313050     96.313050    192.626099
     -1.759657     91.631234     91.631234    183.262468
     -1.731044     87.894666     87.894666    175.789333
     -1.702432     85.310975     85.310975    170.621950
     -1.673820     83.161993     83.161993    166.323986
     -1.645207     80.348855     80.348855    160.697710
     -1.616595     76.280914     76.280914    152.561828
     -1.587983     71.209203     71.209203    142.418405
     -1.559371     65.733916     65.733916    131.467832
     -1.530758     60.190287     60.190287    120.380574
     -1.502146     54.642560     54.642560    109.285120
     -1.473534     49.311081     49.311081     98.622163
     -1.444921     44.705061     44.705061     89.410122
     -1.416309     41.228539     41.228539     82.457079
     -1.387697     38.773793     38.773793     77.547586
     -1.359084     36.802206     36.802206     73.604412
     -1.330472     34.785908     34.785908     69.571817
     -1.301860     32.523063     32.523063     65.046125
     -1.273247     30.088164     30.088164     60.176329
     -1.244635     27.590340     27.590340     55.180680
     -1.216023     25.025948     25.025948     50.051896
     -1.187411     22.340170     22.340170     44.680340
     -1.158798     19.591318     19.591318     39.182636
     -1.130186     17.008388     17.008388     34.016777
     -1.101574     14.842263     14.842263     29.684526
     -1.072961     13.162247     13.162247     26.324494
     -1.044349     11.838461     11.838461     23.676923
     -1.015737     10.717955     10.717955     21.435911
     -0.987124      9.754483      9.754483     19.508966
     -0.958512      8.946739      8.946739     17.893478
     -0.929900      8.227545      8.227545     16.455090
     -0.901288      7.500893      7.500893     15.001787
     -0.872675      6.787185      6.787185     13.574370
     -0.844063      6.261514      6.261514     12.523028
     -0.815451      6.086746      6.086746     12.173493
     -0.786838      6.193638      6.193638     12.387275
     -0.758226      6.248511      6.248511     12.497023
     -0.729614      5.876802      5.876802     11.753604
     -0.701001      4.954663      4.954663      9.909326
     -0.672389      3.710260      3.710260      7.420519
     -0.643777      2.564230      2.564230      5.128460
     -0.615165      1.868247      1.868247      3.736494
     -0.586552      1.734686      1.734686      3.469372
     -0.557940      2.019459      2.019459      4.038918
     -0.529328      2.417171      2.417171      4.834342
     -0.500715      2.615313      2.615313      5.230625
     -0.472103      2.447189      2.447189      4.894377
     -0.443491      1.960309      1.960309      3.920618
     -0.414878      1.355042      1.355042      2.710084
     -0.386266      0.849449      0.849449      1.698897
     -0.357654      0.576579      0.576579      1.153158
     -0.329041      0.562284      0.562284      1.124567
     -0.300429      0.749237      0.749237      1.498474
