# EIG2DOS: Utility for SIESTA to obtain the electronic density of states
#  E. Artacho, Apr 1999, A. Garcia, Apr 2012
# ------------------------------------------
# Eigenvalues read from mos2-3graphene.EIG
# Using smearing parameter:   0.100
# Using    700 points in energy range
# Selected bands: 1 to: 2606
# Emin, emax in file for selected band(s):    -23.0929300    159.7910800
# Nbands, Nspin, Nk   =   2606     1    13
# E_F                 =    -4.8420 eV --> (shifted to ZERO)
# Broadening          =     0.1000 eV
#
#        E            N(up)  (=)   N(down)         Ntot
    -10.000000     10.436888     10.436888     20.873775
     -9.971388     10.264300     10.264300     20.528601
     -9.942775     10.200063     10.200063     20.400127
     -9.914163     10.284288     10.284288     20.568575
     -9.885551     10.449878     10.449878     20.899756
     -9.856938     10.585902     10.585902     21.171804
     -9.828326     10.642445     10.642445     21.284889
     -9.799714     10.666987     10.666987     21.333973
     -9.771102     10.724163     10.724163     21.448327
     -9.742489     10.783844     10.783844     21.567687
     -9.713877     10.716095     10.716095     21.432190
     -9.685265     10.411311     10.411311     20.822622
     -9.656652      9.888719      9.888719     19.777438
     -9.628040      9.275660      9.275660     18.551319
     -9.599428      8.703239      8.703239     17.406478
     -9.570815      8.247646      8.247646     16.495293
     -9.542203      7.961919      7.961919     15.923837
     -9.513591      7.927762      7.927762     15.855524
     -9.484979      8.247226      8.247226     16.494451
     -9.456366      8.969938      8.969938     17.939877
     -9.427754     10.020789     10.020789     20.041578
     -9.399142     11.199318     11.199318     22.398636
     -9.370529     12.263027     12.263027     24.526054
     -9.341917     13.032448     13.032448     26.064895
     -9.313305     13.445934     13.445934     26.891869
     -9.284692     13.557362     13.557362     27.114723
     -9.256080     13.515791     13.515791     27.031581
     -9.227468     13.529979     13.529979     27.059957
     -9.198856     13.776576     13.776576     27.553153
     -9.170243     14.258106     14.258106     28.516212
     -9.141631     14.721928     14.721928     29.443857
     -9.113019     14.772274     14.772274     29.544547
     -9.084406     14.161580     14.161580     28.323159
     -9.055794     13.042765     13.042765     26.085530
     -9.027182     11.933510     11.933510     23.867020
     -8.998569     11.380912     11.380912     22.761825
     -8.969957     11.603895     11.603895     23.207790
     -8.941345     12.416668     12.416668     24.833335
     -8.912732     13.460107     13.460107     26.920215
     -8.884120     14.481522     14.481522     28.963043
     -8.855508     15.407011     15.407011     30.814022
     -8.826896     16.221344     16.221344     32.442688
     -8.798283     16.878386     16.878386     33.756772
     -8.769671     17.364102     17.364102     34.728203
     -8.741059     17.780630     17.780630     35.561261
     -8.712446     18.265116     18.265116     36.530233
     -8.683834     18.778233     18.778233     37.556466
     -8.655222     19.016708     19.016708     38.033415
     -8.626609     18.634271     18.634271     37.268541
     -8.597997     17.620322     17.620322     35.240643
     -8.569385     16.437131     16.437131     32.874261
     -8.540773     15.695583     15.695583     31.391166
     -8.512160     15.640508     15.640508     31.281016
     -8.483548     15.969871     15.969871     31.939741
     -8.454936     16.176912     16.176912     32.353824
     -8.426323     16.026297     16.026297     32.052594
     -8.397711     15.645907     15.645907     31.291814
     -8.369099     15.212791     15.212791     30.425582
     -8.340486     14.710984     14.710984     29.421969
     -8.311874     14.087533     14.087533     28.175065
     -8.283262     13.547207     13.547207     27.094413
     -8.254649     13.518642     13.518642     27.037285
     -8.226037     14.265361     14.265361     28.530723
     -8.197425     15.583789     15.583789     31.167577
     -8.168813     16.930629     16.930629     33.861258
     -8.140200     17.842550     17.842550     35.685100
     -8.111588     18.241509     18.241509     36.483018
     -8.082976     18.388595     18.388595     36.777190
     -8.054363     18.598227     18.598227     37.196453
     -8.025751     19.002937     19.002937     38.005874
     -7.997139     19.545919     19.545919     39.091837
     -7.968526     20.116787     20.116787     40.233574
     -7.939914     20.609423     20.609423     41.218846
     -7.911302     20.833613     20.833613     41.667225
     -7.882690     20.480547     20.480547     40.961094
     -7.854077     19.337858     19.337858     38.675717
     -7.825465     17.594590     17.594590     35.189180
     -7.796853     15.835249     15.835249     31.670497
     -7.768240     14.612662     14.612662     29.225323
     -7.739628     14.008486     14.008486     28.016972
     -7.711016     13.650549     13.650549     27.301099
     -7.682403     13.149725     13.149725     26.299450
     -7.653791     12.483874     12.483874     24.967749
     -7.625179     11.993143     11.993143     23.986286
     -7.596567     12.094201     12.094201     24.188402
     -7.567954     13.010904     13.010904     26.021808
     -7.539342     14.663658     14.663658     29.327316
     -7.510730     16.698153     16.698153     33.396307
     -7.482117     18.633700     18.633700     37.267400
     -7.453505     20.100046     20.100046     40.200092
     -7.424893     21.016939     21.016939     42.033879
     -7.396280     21.550635     21.550635     43.101271
     -7.367668     21.880882     21.880882     43.761764
     -7.339056     22.008802     22.008802     44.017604
     -7.310443     21.776544     21.776544     43.553087
     -7.281831     21.039048     21.039048     42.078095
     -7.253219     19.805633     19.805633     39.611266
     -7.224607     18.256774     18.256774     36.513548
     -7.195994     16.684784     16.684784     33.369568
     -7.167382     15.426011     15.426011     30.852023
     -7.138770     14.774304     14.774304     29.548609
     -7.110157     14.862752     14.862752     29.725503
     -7.081545     15.597893     15.597893     31.195786
     -7.052933     16.741162     16.741162     33.482325
     -7.024320     18.074718     18.074718     36.149436
     -6.995708     19.479179     19.479179     38.958359
     -6.967096     20.887565     20.887565     41.775129
     -6.938484     22.273674     22.273674     44.547348
     -6.909871     23.752986     23.752986     47.505972
     -6.881259     25.612629     25.612629     51.225259
     -6.852647     28.088285     28.088285     56.176571
     -6.824034     31.053398     31.053398     62.106796
     -6.795422     33.992751     33.992751     67.985502
     -6.766810     36.346766     36.346766     72.693532
     -6.738197     37.873998     37.873998     75.747997
     -6.709585     38.668088     38.668088     77.336177
     -6.680973     38.903546     38.903546     77.807091
     -6.652361     38.694994     38.694994     77.389989
     -6.623748     38.230673     38.230673     76.461346
     -6.595136     37.910222     37.910222     75.820445
     -6.566524     38.193687     38.193687     76.387374
     -6.537911     39.275036     39.275036     78.550072
     -6.509299     40.947745     40.947745     81.895489
     -6.480687     42.814815     42.814815     85.629631
     -6.452074     44.639535     44.639535     89.279070
     -6.423462     46.541081     46.541081     93.082162
     -6.394850     48.902216     48.902216     97.804432
     -6.366237     52.059372     52.059372    104.118744
     -6.337625     55.986787     55.986787    111.973573
     -6.309013     60.220970     60.220970    120.441939
     -6.280401     64.114340     64.114340    128.228679
     -6.251788     67.214858     67.214858    134.429715
     -6.223176     69.436830     69.436830    138.873659
     -6.194564     70.907364     70.907364    141.814727
     -6.165951     71.704404     71.704404    143.408809
     -6.137339     71.757753     71.757753    143.515505
     -6.108727     70.952777     70.952777    141.905553
     -6.080114     69.286506     69.286506    138.573013
     -6.051502     66.953739     66.953739    133.907479
     -6.022890     64.347257     64.347257    128.694514
     -5.994278     61.979759     61.979759    123.959519
     -5.965665     60.310594     60.310594    120.621188
     -5.937053     59.516728     59.516728    119.033456
     -5.908441     59.374311     59.374311    118.748622
     -5.879828     59.409933     59.409933    118.819866
     -5.851216     59.228906     59.228906    118.457812
     -5.822604     58.694368     58.694368    117.388735
     -5.793991     57.780162     57.780162    115.560323
     -5.765379     56.344648     56.344648    112.689295
     -5.736767     54.207727     54.207727    108.415454
     -5.708155     51.498476     51.498476    102.996952
     -5.679542     48.792450     48.792450     97.584900
     -5.650930     46.735848     46.735848     93.471696
     -5.622318     45.491672     45.491672     90.983344
     -5.593705     44.611385     44.611385     89.222770
     -5.565093     43.491351     43.491351     86.982702
     -5.536481     41.979560     41.979560     83.959119
     -5.507868     40.579444     40.579444     81.158888
     -5.479256     40.049474     40.049474     80.098947
     -5.450644     40.680327     40.680327     81.360653
     -5.422031     41.865510     41.865510     83.731020
     -5.393419     42.470369     42.470369     84.940737
     -5.364807     41.818775     41.818775     83.637549
     -5.336195     40.421083     40.421083     80.842166
     -5.307582     39.744226     39.744226     79.488451
     -5.278970     41.286027     41.286027     82.572054
     -5.250358     45.791941     45.791941     91.583882
     -5.221745     53.030856     53.030856    106.061713
     -5.193133     61.902971     61.902971    123.805942
     -5.164521     70.637437     70.637437    141.274874
     -5.135908     77.183947     77.183947    154.367895
     -5.107296     79.916828     79.916828    159.833656
     -5.078684     78.403417     78.403417    156.806834
     -5.050072     73.706353     73.706353    147.412705
     -5.021459     67.842687     67.842687    135.685373
     -4.992847     62.615200     62.615200    125.230400
     -4.964235     58.642931     58.642931    117.285863
     -4.935622     55.367522     55.367522    110.735045
     -4.907010     51.947620     51.947620    103.895239
     -4.878398     48.139083     48.139083     96.278166
     -4.849785     44.422389     44.422389     88.844777
     -4.821173     41.507041     41.507041     83.014082
     -4.792561     39.829973     39.829973     79.659946
     -4.763948     39.375793     39.375793     78.751587
     -4.735336     39.726702     39.726702     79.453404
     -4.706724     40.239844     40.239844     80.479687
     -4.678112     40.373442     40.373442     80.746884
     -4.649499     40.046602     40.046602     80.093204
     -4.620887     39.754469     39.754469     79.508937
     -4.592275     40.343910     40.343910     80.687821
     -4.563662     42.649924     42.649924     85.299848
     -4.535050     47.162311     47.162311     94.324622
     -4.506438     53.703652     53.703652    107.407304
     -4.477825     61.202289     61.202289    122.404579
     -4.449213     67.881596     67.881596    135.763191
     -4.420601     71.993753     71.993753    143.987506
     -4.391989     72.652712     72.652712    145.305425
     -4.363376     70.124252     70.124252    140.248504
     -4.334764     65.447367     65.447367    130.894734
     -4.306152     59.849402     59.849402    119.698804
     -4.277539     54.407225     54.407225    108.814450
     -4.248927     49.986727     49.986727     99.973455
     -4.220315     47.229966     47.229966     94.459933
     -4.191702     46.423362     46.423362     92.846725
     -4.163090     47.300044     47.300044     94.600089
     -4.134478     49.005448     49.005448     98.010896
     -4.105866     50.410824     50.410824    100.821649
     -4.077253     50.662565     50.662565    101.325130
     -4.048641     49.576608     49.576608     99.153216
     -4.020029     47.568789     47.568789     95.137577
     -3.991416     45.227347     45.227347     90.454693
     -3.962804     42.942631     42.942631     85.885263
     -3.934192     40.861584     40.861584     81.723167
     -3.905579     39.037164     39.037164     78.074327
     -3.876967     37.502038     37.502038     75.004077
     -3.848355     36.220161     36.220161     72.440323
     -3.819742     35.073773     35.073773     70.147545
     -3.791130     33.976423     33.976423     67.952845
     -3.762518     33.037361     33.037361     66.074722
     -3.733906     32.634393     32.634393     65.268786
     -3.705293     33.272224     33.272224     66.544448
     -3.676681     35.220887     35.220887     70.441773
     -3.648069     38.164912     38.164912     76.329825
     -3.619456     41.219845     41.219845     82.439690
     -3.590844     43.417491     43.417491     86.834983
     -3.562232     44.311217     44.311217     88.622434
     -3.533619     44.209433     44.209433     88.418867
     -3.505007     43.869001     43.869001     87.738001
     -3.476395     43.924621     43.924621     87.849243
     -3.447783     44.498763     44.498763     88.997526
     -3.419170     45.238920     45.238920     90.477840
     -3.390558     45.667829     45.667829     91.335658
     -3.361946     45.519167     45.519167     91.038334
     -3.333333     44.835456     44.835456     89.670911
     -3.304721     43.875337     43.875337     87.750674
     -3.276109     42.997972     42.997972     85.995945
     -3.247496     42.572861     42.572861     85.145722
     -3.218884     42.843512     42.843512     85.687025
     -3.190272     43.755252     43.755252     87.510504
     -3.161660     44.909811     44.909811     89.819623
     -3.133047     45.780317     45.780317     91.560635
     -3.104435     46.094755     46.094755     92.189510
     -3.075823     46.095769     46.095769     92.191537
     -3.047210     46.411361     46.411361     92.822723
     -3.018598     47.540649     47.540649     95.081297
     -2.989986     49.293714     49.293714     98.587428
     -2.961373     50.652258     50.652258    101.304515
     -2.932761     50.278824     50.278824    100.557647
     -2.904149     47.420064     47.420064     94.840127
     -2.875536     42.566282     42.566282     85.132564
     -2.846924     37.287054     37.287054     74.574109
     -2.818312     33.249321     33.249321     66.498642
     -2.789700     31.151414     31.151414     62.302828
     -2.761087     30.465936     30.465936     60.931872
     -2.732475     30.180731     30.180731     60.361461
     -2.703863     29.795957     29.795957     59.591914
     -2.675250     29.650906     29.650906     59.301812
     -2.646638     30.388235     30.388235     60.776470
     -2.618026     32.180483     32.180483     64.360965
     -2.589413     34.435911     34.435911     68.871823
     -2.560801     36.166850     36.166850     72.333700
     -2.532189     36.682737     36.682737     73.365473
     -2.503577     36.097694     36.097694     72.195388
     -2.474964     35.267172     35.267172     70.534344
     -2.446352     35.141783     35.141783     70.283567
     -2.417740     36.026674     36.026674     72.053348
     -2.389127     37.413375     37.413375     74.826750
     -2.360515     38.554498     38.554498     77.108996
     -2.331903     39.189887     39.189887     78.379773
     -2.303290     39.687195     39.687195     79.374389
     -2.274678     40.540438     40.540438     81.080876
     -2.246066     41.843771     41.843771     83.687541
     -2.217454     43.242405     43.242405     86.484810
     -2.188841     44.248942     44.248942     88.497884
     -2.160229     44.533971     44.533971     89.067942
     -2.131617     44.043131     44.043131     88.086263
     -2.103004     43.033443     43.033443     86.066885
     -2.074392     42.047143     42.047143     84.094286
     -2.045780     41.721529     41.721529     83.443058
     -2.017167     42.442359     42.442359     84.884718
     -1.988555     44.052229     44.052229     88.104457
     -1.959943     45.860945     45.860945     91.721890
     -1.931330     47.005922     47.005922     94.011845
     -1.902718     46.923775     46.923775     93.847550
     -1.874106     45.581372     45.581372     91.162743
     -1.845494     43.324497     43.324497     86.648994
     -1.816881     40.540230     40.540230     81.080460
     -1.788269     37.454705     37.454705     74.909410
     -1.759657     34.216128     34.216128     68.432256
     -1.731044     31.123806     31.123806     62.247611
     -1.702432     28.689127     28.689127     57.378254
     -1.673820     27.344357     27.344357     54.688714
     -1.645207     27.012778     27.012778     54.025555
     -1.616595     27.006788     27.006788     54.013576
     -1.587983     26.453476     26.453476     52.906951
     -1.559371     24.898887     24.898887     49.797775
     -1.530758     22.553879     22.553879     45.107759
     -1.502146     20.027885     20.027885     40.055770
     -1.473534     17.872430     17.872430     35.744861
     -1.444921     16.320454     16.320454     32.640908
     -1.416309     15.322021     15.322021     30.644043
     -1.387697     14.723048     14.723048     29.446096
     -1.359084     14.398598     14.398598     28.797196
     -1.330472     14.264375     14.264375     28.528749
     -1.301860     14.217468     14.217468     28.434936
     -1.273247     14.103951     14.103951     28.207902
     -1.244635     13.758509     13.758509     27.517017
     -1.216023     13.088009     13.088009     26.176017
     -1.187411     12.145477     12.145477     24.290953
     -1.158798     11.139983     11.139983     22.279966
     -1.130186     10.334954     10.334954     20.669908
     -1.101574      9.859648      9.859648     19.719297
     -1.072961      9.577706      9.577706     19.155412
     -1.044349      9.160501      9.160501     18.321002
     -1.015737      8.335894      8.335894     16.671788
     -0.987124      7.112124      7.112124     14.224248
     -0.958512      5.803275      5.803275     11.606549
     -0.929900      4.848957      4.848957      9.697914
     -0.901288      4.552421      4.552421      9.104843
     -0.872675      4.893389      4.893389      9.786779
     -0.844063      5.527204      5.527204     11.054409
     -0.815451      5.975731      5.975731     11.951463
     -0.786838      5.892784      5.892784     11.785568
     -0.758226      5.242512      5.242512     10.485023
     -0.729614      4.301056      4.301056      8.602111
     -0.701001      3.503495      3.503495      7.006989
     -0.672389      3.221256      3.221256      6.442512
     -0.643777      3.565551      3.565551      7.131102
     -0.615165      4.307629      4.307629      8.615257
     -0.586552      4.980763      4.980763      9.961526
     -0.557940      5.140232      5.140232     10.280464
     -0.529328      4.629572      4.629572      9.259143
     -0.500715      3.661657      3.661657      7.323313
     -0.472103      2.657309      2.657309      5.314617
     -0.443491      1.979485      1.979485      3.958969
     -0.414878      1.758416      1.758416      3.516831
     -0.386266      1.889028      1.889028      3.778055
     -0.357654      2.144084      2.144084      4.288168
     -0.329041      2.303976      2.303976      4.607952
     -0.300429      2.242069      2.242069      4.484138
