# EIG2DOS: Utility for SIESTA to obtain the electronic density of states
#  E. Artacho, Apr 1999, A. Garcia, Apr 2012
# ------------------------------------------
# Eigenvalues read from mos2-3graphene.EIG
# Using smearing parameter:   0.100
# Using    700 points in energy range
# Selected bands: 1 to: 2606
# Emin, emax in file for selected band(s):    -23.1051400    159.7193800
# Nbands, Nspin, Nk   =   2606     1    13
# E_F                 =    -4.8633 eV --> (shifted to ZERO)
# Broadening          =     0.1000 eV
#
#        E            N(up)  (=)   N(down)         Ntot
    -10.000000      8.446273      8.446273     16.892546
     -9.971388      6.815842      6.815842     13.631684
     -9.942775      6.049435      6.049435     12.098870
     -9.914163      6.192926      6.192926     12.385852
     -9.885551      7.089547      7.089547     14.179095
     -9.856938      8.509437      8.509437     17.018873
     -9.828326     10.233402     10.233402     20.466803
     -9.799714     12.045451     12.045451     24.090901
     -9.771102     13.674516     13.674516     27.349032
     -9.742489     14.771519     14.771519     29.543039
     -9.713877     14.984971     14.984971     29.969942
     -9.685265     14.113261     14.113261     28.226522
     -9.656652     12.229818     12.229818     24.459637
     -9.628040      9.684609      9.684609     19.369217
     -9.599428      6.981083      6.981083     13.962165
     -9.570815      4.615114      4.615114      9.230228
     -9.542203      2.971002      2.971002      5.942004
     -9.513591      2.313648      2.313648      4.627296
     -9.484979      2.838905      2.838905      5.677810
     -9.456366      4.688755      4.688755      9.377510
     -9.427754      7.857542      7.857542     15.715083
     -9.399142     12.024620     12.024620     24.049241
     -9.370529     16.462808     16.462808     32.925617
     -9.341917     20.167922     20.167922     40.335843
     -9.313305     22.208869     22.208869     44.417738
     -9.284692     22.123559     22.123559     44.247119
     -9.256080     20.127408     20.127408     40.254816
     -9.227468     17.008140     17.008140     34.016280
     -9.198856     13.773078     13.773078     27.546157
     -9.170243     11.249604     11.249604     22.499209
     -9.141631      9.828502      9.828502     19.657004
     -9.113019      9.425094      9.425094     18.850187
     -9.084406      9.627228      9.627228     19.254457
     -9.055794      9.955688      9.955688     19.911376
     -9.027182     10.140444     10.140444     20.280888
     -8.998569     10.282651     10.282651     20.565303
     -8.969957     10.782852     10.782852     21.565704
     -8.941345     12.039731     12.039731     24.079461
     -8.912732     14.108767     14.108767     28.217533
     -8.884120     16.582932     16.582932     33.165865
     -8.855508     18.806247     18.806247     37.612493
     -8.826896     20.266336     20.266336     40.532672
     -8.798283     20.871908     20.871908     41.743816
     -8.769671     20.918085     20.918085     41.836169
     -8.741059     20.784252     20.784252     41.568505
     -8.712446     20.614365     20.614365     41.228729
     -8.683834     20.239614     20.239614     40.479229
     -8.655222     19.386958     19.386958     38.773916
     -8.626609     17.961619     17.961619     35.923238
     -8.597997     16.156382     16.156382     32.312764
     -8.569385     14.344404     14.344404     28.688808
     -8.540773     12.906921     12.906921     25.813841
     -8.512160     12.134826     12.134826     24.269652
     -8.483548     12.197041     12.197041     24.394081
     -8.454936     13.096639     13.096639     26.193277
     -8.426323     14.608098     14.608098     29.216197
     -8.397711     16.276244     16.276244     32.552488
     -8.369099     17.532860     17.532860     35.065719
     -8.340486     17.894182     17.894182     35.788365
     -8.311874     17.154444     17.154444     34.308887
     -8.283262     15.503466     15.503466     31.006932
     -8.254649     13.520604     13.520604     27.041207
     -8.226037     12.020908     12.020908     24.041815
     -8.197425     11.767736     11.767736     23.535471
     -8.168813     13.128104     13.128104     26.256209
     -8.140200     15.828852     15.828852     31.657704
     -8.111588     19.006836     19.006836     38.013672
     -8.082976     21.621853     21.621853     43.243707
     -8.054363     23.029054     23.029054     46.058108
     -8.025751     23.314912     23.314912     46.629823
     -7.997139     23.121098     23.121098     46.242196
     -7.968526     23.069713     23.069713     46.139427
     -7.939914     23.234375     23.234375     46.468749
     -7.911302     23.071389     23.071389     46.142778
     -7.882690     21.855166     21.855166     43.710332
     -7.854077     19.272658     19.272658     38.545316
     -7.825465     15.730688     15.730688     31.461376
     -7.796853     12.163460     12.163460     24.326920
     -7.768240      9.496199      9.496199     18.992398
     -7.739628      8.153745      8.153745     16.307490
     -7.711016      7.941527      7.941527     15.883053
     -7.682403      8.335627      8.335627     16.671254
     -7.653791      8.931901      8.931901     17.863803
     -7.625179      9.725822      9.725822     19.451645
     -7.596567     11.050805     11.050805     22.101611
     -7.567954     13.256681     13.256681     26.513362
     -7.539342     16.379902     16.379902     32.759803
     -7.510730     20.034166     20.034166     40.068333
     -7.482117     23.569644     23.569644     47.139288
     -7.453505     26.360861     26.360861     52.721721
     -7.424893     28.024620     28.024620     56.049240
     -7.396280     28.460450     28.460450     56.920899
     -7.367668     27.754332     27.754332     55.508663
     -7.339056     26.065016     26.065016     52.130032
     -7.310443     23.570888     23.570888     47.141777
     -7.281831     20.471143     20.471143     40.942286
     -7.253219     17.006952     17.006952     34.013904
     -7.224607     13.490394     13.490394     26.980788
     -7.195994     10.334580     10.334580     20.669161
     -7.167382      8.052716      8.052716     16.105433
     -7.138770      7.176798      7.176798     14.353595
     -7.110157      8.078654      8.078654     16.157307
     -7.081545     10.761589     10.761589     21.523178
     -7.052933     14.766785     14.766785     29.533571
     -7.024320     19.302792     19.302792     38.605584
     -6.995708     23.546006     23.546006     47.092011
     -6.967096     26.919872     26.919872     53.839744
     -6.938484     29.193592     29.193592     58.387183
     -6.909871     30.408163     30.408163     60.816326
     -6.881259     30.754751     30.754751     61.509503
     -6.852647     30.501724     30.501724     61.003449
     -6.824034     29.967095     29.967095     59.934191
     -6.795422     29.477135     29.477135     58.954270
     -6.766810     29.279566     29.279566     58.559132
     -6.738197     29.455021     29.455021     58.910041
     -6.709585     29.908379     29.908379     59.816758
     -6.680973     30.458598     30.458598     60.917197
     -6.652361     30.948519     30.948519     61.897039
     -6.623748     31.301007     31.301007     62.602014
     -6.595136     31.536369     31.536369     63.072739
     -6.566524     31.784244     31.784244     63.568489
     -6.537911     32.263203     32.263203     64.526406
     -6.509299     33.211609     33.211609     66.423218
     -6.480687     34.831407     34.831407     69.662815
     -6.452074     37.279207     37.279207     74.558414
     -6.423462     40.611013     40.611013     81.222025
     -6.394850     44.604376     44.604376     89.208752
     -6.366237     48.612349     48.612349     97.224698
     -6.337625     51.727113     51.727113    103.454227
     -6.309013     53.282714     53.282714    106.565427
     -6.280401     53.348068     53.348068    106.696135
     -6.251788     52.812806     52.812806    105.625612
     -6.223176     53.004109     53.004109    106.008218
     -6.194564     55.110564     55.110564    110.221127
     -6.165951     59.729280     59.729280    119.458560
     -6.137339     66.664762     66.664762    133.329524
     -6.108727     74.938273     74.938273    149.876546
     -6.080114     82.954541     82.954541    165.909081
     -6.051502     88.854074     88.854074    177.708148
     -6.022890     91.074276     91.074276    182.148553
     -5.994278     88.974227     88.974227    177.948453
     -5.965665     83.206060     83.206060    166.412121
     -5.937053     75.556727     75.556727    151.113455
     -5.908441     68.242871     68.242871    136.485742
     -5.879828     62.952007     62.952007    125.904014
     -5.851216     60.127822     60.127822    120.255643
     -5.822604     58.945119     58.945119    117.890238
     -5.793991     58.022492     58.022492    116.044983
     -5.765379     56.401516     56.401516    112.803031
     -5.736767     54.129242     54.129242    108.258483
     -5.708155     52.086352     52.086352    104.172704
     -5.679542     51.223900     51.223900    102.447800
     -5.650930     51.740882     51.740882    103.481764
     -5.622318     52.776982     52.776982    105.553964
     -5.593705     52.878202     52.878202    105.756403
     -5.565093     50.950088     50.950088    101.900177
     -5.536481     47.014467     47.014467     94.028934
     -5.507868     42.206044     42.206044     84.412088
     -5.479256     38.045529     38.045529     76.091058
     -5.450644     35.585761     35.585761     71.171522
     -5.422031     35.028069     35.028069     70.056138
     -5.393419     35.897748     35.897748     71.795497
     -5.364807     37.427626     37.427626     74.855253
     -5.336195     38.843085     38.843085     77.686169
     -5.307582     39.552502     39.552502     79.105003
     -5.278970     39.352728     39.352728     78.705456
     -5.250358     38.585697     38.585697     77.171393
     -5.221745     38.055019     38.055019     76.110038
     -5.193133     38.646809     38.646809     77.293617
     -5.164521     40.860786     40.860786     81.721571
     -5.135908     44.565754     44.565754     89.131509
     -5.107296     49.123092     49.123092     98.246184
     -5.078684     53.731547     53.731547    107.463093
     -5.050072     57.725627     57.725627    115.451255
     -5.021459     60.701382     60.701382    121.402764
     -4.992847     62.539901     62.539901    125.079801
     -4.964235     63.416851     63.416851    126.833701
     -4.935622     63.751032     63.751032    127.502065
     -4.907010     63.989821     63.989821    127.979642
     -4.878398     64.289964     64.289964    128.579928
     -4.849785     64.357029     64.357029    128.714059
     -4.821173     63.656192     63.656192    127.312384
     -4.792561     61.874406     61.874406    123.748812
     -4.763948     59.234734     59.234734    118.469468
     -4.735336     56.361377     56.361377    112.722754
     -4.706724     53.803673     53.803673    107.607345
     -4.678112     51.642803     51.642803    103.285607
     -4.649499     49.501042     49.501042     99.002085
     -4.620887     46.873724     46.873724     93.747447
     -4.592275     43.454016     43.454016     86.908032
     -4.563662     39.259394     39.259394     78.518788
     -4.535050     34.651020     34.651020     69.302040
     -4.506438     30.382535     30.382535     60.765070
     -4.477825     27.613999     27.613999     55.227998
     -4.449213     27.701720     27.701720     55.403440
     -4.420601     31.700261     31.700261     63.400523
     -4.391989     39.741543     39.741543     79.483086
     -4.363376     50.606170     50.606170    101.212340
     -4.334764     61.829341     61.829341    123.658681
     -4.306152     70.525141     70.525141    141.050282
     -4.277539     74.676337     74.676337    149.352674
     -4.248927     74.127043     74.127043    148.254085
     -4.220315     70.503794     70.503794    141.007588
     -4.191702     66.056863     66.056863    132.113726
     -4.163090     62.329731     62.329731    124.659462
     -4.134478     59.647313     59.647313    119.294625
     -4.105866     57.557896     57.557896    115.115792
     -4.077253     55.537536     55.537536    111.075072
     -4.048641     53.313373     53.313373    106.626747
     -4.020029     50.810055     50.810055    101.620109
     -3.991416     48.068550     48.068550     96.137100
     -3.962804     45.241712     45.241712     90.483424
     -3.934192     42.513982     42.513982     85.027963
     -3.905579     39.951085     39.951085     79.902170
     -3.876967     37.506287     37.506287     75.012575
     -3.848355     35.252652     35.252652     70.505303
     -3.819742     33.589959     33.589959     67.179918
     -3.791130     33.158802     33.158802     66.317604
     -3.762518     34.480298     34.480298     68.960595
     -3.733906     37.566153     37.566153     75.132306
     -3.705293     41.742880     41.742880     83.485760
     -3.676681     45.804261     45.804261     91.608523
     -3.648069     48.438879     48.438879     96.877757
     -3.619456     48.729038     48.729038     97.458076
     -3.590844     46.491443     46.491443     92.982887
     -3.562232     42.350713     42.350713     84.701426
     -3.533619     37.546454     37.546454     75.092908
     -3.505007     33.492451     33.492451     66.984903
     -3.476395     31.194975     31.194975     62.389950
     -3.447783     30.850618     30.850618     61.701237
     -3.419170     31.959272     31.959272     63.918543
     -3.390558     33.875989     33.875989     67.751978
     -3.361946     36.278716     36.278716     72.557432
     -3.333333     39.131448     39.131448     78.262897
     -3.304721     42.300556     42.300556     84.601112
     -3.276109     45.339893     45.339893     90.679786
     -3.247496     47.684861     47.684861     95.369721
     -3.218884     48.976931     48.976931     97.953862
     -3.190272     49.141792     49.141792     98.283584
     -3.161660     48.234263     48.234263     96.468527
     -3.133047     46.359546     46.359546     92.719091
     -3.104435     43.794783     43.794783     87.589566
     -3.075823     41.093861     41.093861     82.187722
     -3.047210     38.948267     38.948267     77.896533
     -3.018598     37.855330     37.855330     75.710659
     -2.989986     37.846536     37.846536     75.693072
     -2.961373     38.501747     38.501747     77.003494
     -2.932761     39.284202     39.284202     78.568404
     -2.904149     39.962658     39.962658     79.925316
     -2.875536     40.736249     40.736249     81.472498
     -2.846924     41.888780     41.888780     83.777560
     -2.818312     43.273191     43.273191     86.546381
     -2.789700     44.173283     44.173283     88.346567
     -2.761087     43.779758     43.779758     87.559516
     -2.732475     41.910868     41.910868     83.821735
     -2.703863     39.303524     39.303524     78.607048
     -2.675250     37.135525     37.135525     74.271051
     -2.646638     36.139870     36.139870     72.279739
     -2.618026     36.079442     36.079442     72.158884
     -2.589413     36.056307     36.056307     72.112613
     -2.560801     35.388031     35.388031     70.776062
     -2.532189     34.265064     34.265064     68.530128
     -2.503577     33.583236     33.583236     67.166472
     -2.474964     34.086551     34.086551     68.173101
     -2.446352     35.601655     35.601655     71.203311
     -2.417740     37.087930     37.087930     74.175859
     -2.389127     37.488409     37.488409     74.976819
     -2.360515     36.621874     36.621874     73.243749
     -2.331903     35.313493     35.313493     70.626987
     -2.303290     34.666801     34.666801     69.333602
     -2.274678     35.152904     35.152904     70.305807
     -2.246066     36.311657     36.311657     72.623314
     -2.217454     37.267641     37.267641     74.535282
     -2.188841     37.553055     37.553055     75.106111
     -2.160229     37.530225     37.530225     75.060450
     -2.131617     38.122573     38.122573     76.245146
     -2.103004     40.128460     40.128460     80.256921
     -2.074392     43.608416     43.608416     87.216832
     -2.045780     47.692938     47.692938     95.385877
     -2.017167     50.930640     50.930640    101.861280
     -1.988555     52.047097     52.047097    104.094193
     -1.959943     50.684752     50.684752    101.369503
     -1.931330     47.600476     47.600476     95.200952
     -1.902718     44.162911     44.162911     88.325822
     -1.874106     41.545815     41.545815     83.091629
     -1.845494     40.204442     40.204442     80.408885
     -1.816881     39.902965     39.902965     79.805931
     -1.788269     40.104691     40.104691     80.209383
     -1.759657     40.342016     40.342016     80.684033
     -1.731044     40.325285     40.325285     80.650569
     -1.702432     39.841842     39.841842     79.683684
     -1.673820     38.672774     38.672774     77.345548
     -1.645207     36.669764     36.669764     73.339529
     -1.616595     33.916598     33.916598     67.833197
     -1.587983     30.798404     30.798404     61.596808
     -1.559371     27.873636     27.873636     55.747273
     -1.530758     25.579781     25.579781     51.159562
     -1.502146     23.946541     23.946541     47.893082
     -1.473534     22.570079     22.570079     45.140157
     -1.444921     20.955951     20.955951     41.911901
     -1.416309     18.985473     18.985473     37.970946
     -1.387697     17.063479     17.063479     34.126958
     -1.359084     15.770685     15.770685     31.541370
     -1.330472     15.348273     15.348273     30.696546
     -1.301860     15.521271     15.521271     31.042542
     -1.273247     15.798766     15.798766     31.597533
     -1.244635     15.889177     15.889177     31.778354
     -1.216023     15.799521     15.799521     31.599041
     -1.187411     15.592842     15.592842     31.185683
     -1.158798     15.155845     15.155845     30.311690
     -1.130186     14.251729     14.251729     28.503458
     -1.101574     12.756525     12.756525     25.513049
     -1.072961     10.797720     10.797720     21.595440
     -1.044349      8.698219      8.698219     17.396437
     -1.015737      6.848033      6.848033     13.696066
     -0.987124      5.599416      5.599416     11.198833
     -0.958512      5.153325      5.153325     10.306650
     -0.929900      5.427833      5.427833     10.855666
     -0.901288      6.021551      6.021551     12.043102
     -0.872675      6.381206      6.381206     12.762411
     -0.844063      6.110289      6.110289     12.220577
     -0.815451      5.204431      5.204431     10.408863
     -0.786838      4.040983      4.040983      8.081967
     -0.758226      3.143062      3.143062      6.286125
     -0.729614      2.888177      2.888177      5.776353
     -0.701001      3.323198      3.323198      6.646396
     -0.672389      4.152418      4.152418      8.304836
     -0.643777      4.892415      4.892415      9.784831
     -0.615165      5.130007      5.130007     10.260014
     -0.586552      4.745327      4.745327      9.490654
     -0.557940      3.947484      3.947484      7.894968
     -0.529328      3.096602      3.096602      6.193204
     -0.500715      2.462404      2.462404      4.924808
     -0.472103      2.108646      2.108646      4.217291
     -0.443491      1.952335      1.952335      3.904670
     -0.414878      1.886458      1.886458      3.772917
     -0.386266      1.840596      1.840596      3.681192
     -0.357654      1.768605      1.768605      3.537211
     -0.329041      1.637880      1.637880      3.275761
     -0.300429      1.456433      1.456433      2.912866
