# EIG2DOS: Utility for SIESTA to obtain the electronic density of states
#  E. Artacho, Apr 1999, A. Garcia, Apr 2012
# ------------------------------------------
# Eigenvalues read from 3mos2-3graphene.EIG
# Using smearing parameter:   0.100
# Using    700 points in energy range
# Selected bands: 1 to: 3918
# Emin, emax in file for selected band(s):    -23.2443000    159.7688200
# Nbands, Nspin, Nk   =   3918     1    13
# E_F                 =    -4.9953 eV --> (shifted to ZERO)
# Broadening          =     0.1000 eV
#
#        E            N(up)  (=)   N(down)         Ntot
    -10.000000      8.506928      8.506928     17.013856
     -9.971388      7.269562      7.269562     14.539124
     -9.942775      6.694395      6.694395     13.388790
     -9.914163      6.884120      6.884120     13.768240
     -9.885551      7.784655      7.784655     15.569309
     -9.856938      9.195926      9.195926     18.391853
     -9.828326     10.826632     10.826632     21.653264
     -9.799714     12.367023     12.367023     24.734047
     -9.771102     13.538260     13.538260     27.076520
     -9.742489     14.108649     14.108649     28.217299
     -9.713877     13.912175     13.912175     27.824350
     -9.685265     12.895798     12.895798     25.791596
     -9.656652     11.166604     11.166604     22.333208
     -9.628040      8.988863      8.988863     17.977726
     -9.599428      6.725846      6.725846     13.451693
     -9.570815      4.769242      4.769242      9.538483
     -9.542203      3.491655      3.491655      6.983310
     -9.513591      3.214965      3.214965      6.429930
     -9.484979      4.161681      4.161681      8.323362
     -9.456366      6.371038      6.371038     12.742076
     -9.427754      9.608654      9.608654     19.217308
     -9.399142     13.343074     13.343074     26.686148
     -9.370529     16.849527     16.849527     33.699054
     -9.341917     19.420302     19.420302     38.840603
     -9.313305     20.583513     20.583513     41.167027
     -9.284692     20.231229     20.231229     40.462458
     -9.256080     18.620973     18.620973     37.241946
     -9.227468     16.273584     16.273584     32.547168
     -9.198856     13.809684     13.809684     27.619367
     -9.170243     11.765107     11.765107     23.530214
     -9.141631     10.434125     10.434125     20.868251
     -9.113019      9.808583      9.808583     19.617166
     -9.084406      9.666281      9.666281     19.332562
     -9.055794      9.774930      9.774930     19.549861
     -9.027182     10.072450     10.072450     20.144900
     -8.998569     10.682087     10.682087     21.364174
     -8.969957     11.756726     11.756726     23.513451
     -8.941345     13.297377     13.297377     26.594754
     -8.912732     15.105190     15.105190     30.210380
     -8.884120     16.892848     16.892848     33.785697
     -8.855508     18.436297     18.436297     36.872593
     -8.826896     19.633280     19.633280     39.266561
     -8.798283     20.452334     20.452334     40.904667
     -8.769671     20.866198     20.866198     41.732396
     -8.741059     20.849577     20.849577     41.699154
     -8.712446     20.419232     20.419232     40.838464
     -8.683834     19.639487     19.639487     39.278973
     -8.655222     18.574001     18.574001     37.148003
     -8.626609     17.257424     17.257424     34.514848
     -8.597997     15.757779     15.757779     31.515558
     -8.569385     14.280127     14.280127     28.560254
     -8.540773     13.167849     13.167849     26.335699
     -8.512160     12.738851     12.738851     25.477703
     -8.483548     13.082637     13.082637     26.165274
     -8.454936     14.005953     14.005953     28.011907
     -8.426323     15.158758     15.158758     30.317516
     -8.397711     16.191746     16.191746     32.383492
     -8.369099     16.816302     16.816302     33.632604
     -8.340486     16.810974     16.810974     33.621948
     -8.311874     16.094872     16.094872     32.189744
     -8.283262     14.860123     14.860123     29.720245
     -8.254649     13.604735     13.604735     27.209471
     -8.226037     12.950813     12.950813     25.901627
     -8.197425     13.331664     13.331664     26.663328
     -8.168813     14.762640     14.762640     29.525281
     -8.140200     16.853413     16.853413     33.706827
     -8.111588     19.044279     19.044279     38.088559
     -8.082976     20.894697     20.894697     41.789394
     -8.054363     22.228107     22.228107     44.456213
     -8.025751     23.068699     23.068699     46.137399
     -7.997139     23.479711     23.479711     46.959422
     -7.968526     23.458427     23.458427     46.916854
     -7.939914     22.935863     22.935863     45.871727
     -7.911302     21.824086     21.824086     43.648173
     -7.882690     20.068353     20.068353     40.136706
     -7.854077     17.719060     17.719060     35.438120
     -7.825465     15.011152     15.011152     30.022304
     -7.796853     12.361083     12.361083     24.722167
     -7.768240     10.218881     10.218881     20.437762
     -7.739628      8.864497      8.864497     17.728993
     -7.711016      8.323981      8.323981     16.647962
     -7.682403      8.468794      8.468794     16.937588
     -7.653791      9.182532      9.182532     18.365065
     -7.625179     10.444779     10.444779     20.889559
     -7.596567     12.294831     12.294831     24.589661
     -7.567954     14.736713     14.736713     29.473426
     -7.539342     17.652065     17.652065     35.304131
     -7.510730     20.760001     20.760001     41.520002
     -7.482117     23.652518     23.652518     47.305037
     -7.453505     25.907251     25.907251     51.814501
     -7.424893     27.219453     27.219453     54.438907
     -7.396280     27.466981     27.466981     54.933962
     -7.367668     26.678718     26.678718     53.357436
     -7.339056     24.963399     24.963399     49.926798
     -7.310443     22.474014     22.474014     44.948028
     -7.281831     19.423202     19.423202     38.846404
     -7.253219     16.108782     16.108782     32.217563
     -7.224607     12.913170     12.913170     25.826340
     -7.195994     10.275748     10.275748     20.551495
     -7.167382      8.644021      8.644021     17.288042
     -7.138770      8.386978      8.386978     16.773955
     -7.110157      9.665729      9.665729     19.331458
     -7.081545     12.327089     12.327089     24.654178
     -7.052933     15.922395     15.922395     31.844790
     -7.024320     19.862986     19.862986     39.725972
     -6.995708     23.593362     23.593362     47.186724
     -6.967096     26.675051     26.675051     53.350102
     -6.938484     28.816102     28.816102     57.632204
     -6.909871     29.932927     29.932927     59.865853
     -6.881259     30.207806     30.207806     60.415612
     -6.852647     30.013352     30.013352     60.026705
     -6.824034     29.693978     29.693978     59.387956
     -6.795422     29.377883     29.377883     58.755765
     -6.766810     28.980950     28.980950     57.961900
     -6.738197     28.367333     28.367333     56.734666
     -6.709585     27.499760     27.499760     54.999519
     -6.680973     26.474585     26.474585     52.949170
     -6.652361     25.467059     25.467059     50.934117
     -6.623748     24.658881     24.658881     49.317763
     -6.595136     24.193681     24.193681     48.387362
     -6.566524     24.183212     24.183212     48.366425
     -6.537911     24.760724     24.760724     49.521448
     -6.509299     26.118929     26.118929     52.237859
     -6.480687     28.450594     28.450594     56.901188
     -6.452074     31.807733     31.807733     63.615467
     -6.423462     36.009767     36.009767     72.019533
     -6.394850     40.684870     40.684870     81.369739
     -6.366237     45.371654     45.371654     90.743309
     -6.337625     49.586688     49.586688     99.173376
     -6.309013     52.920043     52.920043    105.840085
     -6.280401     55.272022     55.272022    110.544045
     -6.251788     57.115712     57.115712    114.231425
     -6.223176     59.451798     59.451798    118.903597
     -6.194564     63.313396     63.313396    126.626792
     -6.165951     69.153342     69.153342    138.306684
     -6.137339     76.615790     76.615790    153.231581
     -6.108727     84.812671     84.812671    169.625341
     -6.080114     92.778240     92.778240    185.556481
     -6.051502     99.784486     99.784486    199.568972
     -6.022890    105.492302    105.492302    210.984604
     -5.994278    109.993893    109.993893    219.987786
     -5.965665    113.677525    113.677525    227.355050
     -5.937053    116.910177    116.910177    233.820355
     -5.908441    119.785678    119.785678    239.571356
     -5.879828    122.184893    122.184893    244.369787
     -5.851216    124.033294    124.033294    248.066588
     -5.822604    125.405007    125.405007    250.810014
     -5.793991    126.372196    126.372196    252.744393
     -5.765379    126.889672    126.889672    253.779344
     -5.736767    126.943421    126.943421    253.886842
     -5.708155    126.728521    126.728521    253.457042
     -5.679542    126.472183    126.472183    252.944366
     -5.650930    126.007956    126.007956    252.015912
     -5.622318    124.653467    124.653467    249.306935
     -5.593705    121.628096    121.628096    243.256191
     -5.565093    116.597113    116.597113    233.194225
     -5.536481    109.876332    109.876332    219.752663
     -5.507868    102.309772    102.309772    204.619545
     -5.479256     95.009905     95.009905    190.019810
     -5.450644     88.944057     88.944057    177.888115
     -5.422031     84.432144     84.432144    168.864289
     -5.393419     80.975599     80.975599    161.951197
     -5.364807     77.708070     77.708070    155.416139
     -5.336195     74.107287     74.107287    148.214575
     -5.307582     70.325748     70.325748    140.651495
     -5.278970     66.954577     66.954577    133.909154
     -5.250358     64.545488     64.545488    129.090976
     -5.221745     63.224070     63.224070    126.448140
     -5.193133     62.538495     62.538495    125.076990
     -5.164521     61.654784     61.654784    123.309568
     -5.135908     59.883182     59.883182    119.766364
     -5.107296     57.151553     57.151553    114.303106
     -5.078684     53.956935     53.956935    107.913870
     -5.050072     50.867093     50.867093    101.734187
     -5.021459     48.171815     48.171815     96.343630
     -4.992847     46.048132     46.048132     92.096264
     -4.964235     44.924500     44.924500     89.849001
     -4.935622     45.527090     45.527090     91.054180
     -4.907010     48.556397     48.556397     97.112795
     -4.878398     54.375238     54.375238    108.750475
     -4.849785     62.956360     62.956360    125.912719
     -4.821173     73.927796     73.927796    147.855592
     -4.792561     86.482000     86.482000    172.964001
     -4.763948     99.281692     99.281692    198.563384
     -4.735336    110.754842    110.754842    221.509684
     -4.706724    119.833999    119.833999    239.667997
     -4.678112    126.548797    126.548797    253.097593
     -4.649499    131.785443    131.785443    263.570886
     -4.620887    136.309298    136.309298    272.618595
     -4.592275    139.956087    139.956087    279.912173
     -4.563662    141.704356    141.704356    283.408712
     -4.535050    140.413434    140.413434    280.826868
     -4.506438    135.544180    135.544180    271.088360
     -4.477825    127.509432    127.509432    255.018865
     -4.449213    117.627947    117.627947    235.255894
     -4.420601    107.631758    107.631758    215.263517
     -4.391989     98.848808     98.848808    197.697615
     -4.363376     91.620435     91.620435    183.240869
     -4.334764     85.468284     85.468284    170.936568
     -4.306152     79.817292     79.817292    159.634585
     -4.277539     74.572436     74.572436    149.144872
     -4.248927     70.149105     70.149105    140.298210
     -4.220315     67.183251     67.183251    134.366502
     -4.191702     66.305904     66.305904    132.611808
     -4.163090     68.028206     68.028206    136.056411
     -4.134478     72.561759     72.561759    145.123519
     -4.105866     79.599522     79.599522    159.199043
     -4.077253     88.314508     88.314508    176.629016
     -4.048641     97.678708     97.678708    195.357417
     -4.020029    106.861817    106.861817    213.723635
     -3.991416    115.402934    115.402934    230.805868
     -3.962804    123.084221    123.084221    246.168443
     -3.934192    129.633680    129.633680    259.267360
     -3.905579    134.431995    134.431995    268.863990
     -3.876967    136.456984    136.456984    272.913968
     -3.848355    134.704256    134.704256    269.408513
     -3.819742    128.986224    128.986224    257.972448
     -3.791130    120.488603    120.488603    240.977205
     -3.762518    111.440030    111.440030    222.880061
     -3.733906    103.982021    103.982021    207.964043
     -3.705293     99.085905     99.085905    198.171810
     -3.676681     96.307760     96.307760    192.615521
     -3.648069     94.404500     94.404500    188.808999
     -3.619456     92.193854     92.193854    184.387708
     -3.590844     89.071245     89.071245    178.142489
     -3.562232     85.058719     85.058719    170.117438
     -3.533619     80.596501     80.596501    161.193002
     -3.505007     76.283388     76.283388    152.566776
     -3.476395     72.647912     72.647912    145.295825
     -3.447783     69.994302     69.994302    139.988604
     -3.419170     68.356502     68.356502    136.713003
     -3.390558     67.540868     67.540868    135.081735
     -3.361946     67.227762     67.227762    134.455525
     -3.333333     67.120193     67.120193    134.240386
     -3.304721     67.052831     67.052831    134.105662
     -3.276109     66.932600     66.932600    133.865201
     -3.247496     66.582401     66.582401    133.164802
     -3.218884     65.766737     65.766737    131.533475
     -3.190272     64.485207     64.485207    128.970414
     -3.161660     63.214788     63.214788    126.429576
     -3.133047     62.753310     62.753310    125.506621
     -3.104435     63.732069     63.732069    127.464139
     -3.075823     66.187311     66.187311    132.374623
     -3.047210     69.487235     69.487235    138.974470
     -3.018598     72.634735     72.634735    145.269470
     -2.989986     74.780019     74.780019    149.560037
     -2.961373     75.669199     75.669199    151.338399
     -2.932761     75.722910     75.722910    151.445821
     -2.904149     75.653696     75.653696    151.307392
     -2.875536     75.939530     75.939530    151.879060
     -2.846924     76.611818     76.611818    153.223635
     -2.818312     77.448370     77.448370    154.896741
     -2.789700     78.262348     78.262348    156.524696
     -2.761087     79.062274     79.062274    158.124549
     -2.732475     80.139892     80.139892    160.279783
     -2.703863     82.081266     82.081266    164.162533
     -2.675250     85.497988     85.497988    170.995975
     -2.646638     90.489246     90.489246    180.978493
     -2.618026     96.288992     96.288992    192.577985
     -2.589413    101.532933    101.532933    203.065866
     -2.560801    105.014343    105.014343    210.028687
     -2.532189    106.333535    106.333535    212.667070
     -2.503577    105.947970    105.947970    211.895939
     -2.474964    104.625216    104.625216    209.250433
     -2.446352    102.761864    102.761864    205.523727
     -2.417740    100.140769    100.140769    200.281538
     -2.389127     96.332884     96.332884    192.665769
     -2.360515     91.348766     91.348766    182.697533
     -2.331903     85.893334     85.893334    171.786667
     -2.303290     80.982907     80.982907    161.965814
     -2.274678     77.307356     77.307356    154.614712
     -2.246066     74.903731     74.903731    149.807462
     -2.217454     73.360133     73.360133    146.720266
     -2.188841     72.311866     72.311866    144.623731
     -2.160229     71.794057     71.794057    143.588115
     -2.131617     72.153616     72.153616    144.307231
     -2.103004     73.578938     73.578938    147.157876
     -2.074392     75.643305     75.643305    151.286609
     -2.045780     77.305067     77.305067    154.610135
     -2.017167     77.454979     77.454979    154.909957
     -1.988555     75.611846     75.611846    151.223691
     -1.959943     72.235076     72.235076    144.470153
     -1.931330     68.498873     68.498873    136.997745
     -1.902718     65.796299     65.796299    131.592599
     -1.874106     65.249100     65.249100    130.498200
     -1.845494     67.299654     67.299654    134.599308
     -1.816881     71.507467     71.507467    143.014935
     -1.788269     76.796520     76.796520    153.593040
     -1.759657     82.111496     82.111496    164.222992
     -1.731044     86.954036     86.954036    173.908071
     -1.702432     91.323897     91.323897    182.647794
     -1.673820     95.222404     95.222404    190.444807
     -1.645207     98.290584     98.290584    196.581168
     -1.616595     99.909495     99.909495    199.818990
     -1.587983     99.603271     99.603271    199.206541
     -1.559371     97.378876     97.378876    194.757752
     -1.530758     93.759460     93.759460    187.518920
     -1.502146     89.517890     89.517890    179.035779
     -1.473534     85.317431     85.317431    170.634862
     -1.444921     81.496350     81.496350    162.992701
     -1.416309     78.090085     78.090085    156.180171
     -1.387697     75.001831     75.001831    150.003661
     -1.359084     72.137952     72.137952    144.275904
     -1.330472     69.386282     69.386282    138.772564
     -1.301860     66.519595     66.519595    133.039189
     -1.273247     63.238430     63.238430    126.476859
     -1.244635     59.392924     59.392924    118.785849
     -1.216023     55.134062     55.134062    110.268123
     -1.187411     50.783725     50.783725    101.567451
     -1.158798     46.562254     46.562254     93.124509
     -1.130186     42.475859     42.475859     84.951718
     -1.101574     38.437910     38.437910     76.875821
     -1.072961     34.434662     34.434662     68.869324
     -1.044349     30.575170     30.575170     61.150339
     -1.015737     27.046353     27.046353     54.092707
     -0.987124     24.042728     24.042728     48.085456
     -0.958512     21.675320     21.675320     43.350640
     -0.929900     19.876017     19.876017     39.752033
     -0.901288     18.388037     18.388037     36.776074
     -0.872675     16.900226     16.900226     33.800452
     -0.844063     15.239668     15.239668     30.479336
     -0.815451     13.469905     13.469905     26.939810
     -0.786838     11.839629     11.839629     23.679257
     -0.758226     10.650899     10.650899     21.301797
     -0.729614     10.116342     10.116342     20.232684
     -0.701001     10.219067     10.219067     20.438134
     -0.672389     10.630009     10.630009     21.260019
     -0.643777     10.809544     10.809544     21.619087
     -0.615165     10.314237     10.314237     20.628473
     -0.586552      9.089530      9.089530     18.179061
     -0.557940      7.478365      7.478365     14.956730
     -0.529328      5.940057      5.940057     11.880113
     -0.500715      4.750885      4.750885      9.501770
     -0.472103      3.925904      3.925904      7.851808
     -0.443491      3.342079      3.342079      6.684157
     -0.414878      2.879707      2.879707      5.759414
     -0.386266      2.467811      2.467811      4.935623
     -0.357654      2.067628      2.067628      4.135255
     -0.329041      1.670423      1.670423      3.340846
     -0.300429      1.316050      1.316050      2.632099
