# EIG2DOS: Utility for SIESTA to obtain the electronic density of states
#  E. Artacho, Apr 1999, A. Garcia, Apr 2012
# ------------------------------------------
# Eigenvalues read from 3mos2-3graphene.EIG
# Using smearing parameter:   0.100
# Using    700 points in energy range
# Selected bands: 1 to: 3918
# Emin, emax in file for selected band(s):    -23.3690100    159.6759600
# Nbands, Nspin, Nk   =   3918     1    13
# E_F                 =    -5.0910 eV --> (shifted to ZERO)
# Broadening          =     0.1000 eV
#
#        E            N(up)  (=)   N(down)         Ntot
    -10.000000      9.734996      9.734996     19.469992
     -9.971388      9.095337      9.095337     18.190674
     -9.942775      8.700299      8.700299     17.400598
     -9.914163      8.689298      8.689298     17.378597
     -9.885551      9.116303      9.116303     18.232607
     -9.856938      9.889069      9.889069     19.778138
     -9.828326     10.786227     10.786227     21.572453
     -9.799714     11.539357     11.539357     23.078715
     -9.771102     11.941622     11.941622     23.883245
     -9.742489     11.925036     11.925036     23.850071
     -9.713877     11.544489     11.544489     23.088978
     -9.685265     10.881701     10.881701     21.763403
     -9.656652      9.975888      9.975888     19.951775
     -9.628040      8.858077      8.858077     17.716154
     -9.599428      7.642222      7.642222     15.284445
     -9.570815      6.574189      6.574189     13.148379
     -9.542203      5.990378      5.990378     11.980756
     -9.513591      6.193292      6.193292     12.386585
     -9.484979      7.291651      7.291651     14.583303
     -9.456366      9.103294      9.103294     18.206588
     -9.427754     11.214179     11.214179     22.428358
     -9.399142     13.173634     13.173634     26.347267
     -9.370529     14.689388     14.689388     29.378775
     -9.341917     15.696132     15.696132     31.392264
     -9.313305     16.280837     16.280837     32.561674
     -9.284692     16.542618     16.542618     33.085237
     -9.256080     16.492244     16.492244     32.984487
     -9.227468     16.057504     16.057504     32.115009
     -9.198856     15.175686     15.175686     30.351373
     -9.170243     13.892192     13.892192     27.784384
     -9.141631     12.403083     12.403083     24.806165
     -9.113019     11.030606     11.030606     22.061213
     -9.084406     10.136595     10.136595     20.273190
     -9.055794      9.988097      9.988097     19.976194
     -9.027182     10.629991     10.629991     21.259982
     -8.998569     11.844089     11.844089     23.688178
     -8.969957     13.242583     13.242583     26.485166
     -8.941345     14.470285     14.470285     28.940569
     -8.912732     15.400548     15.400548     30.801097
     -8.884120     16.175135     16.175135     32.350270
     -8.855508     17.042021     17.042021     34.084042
     -8.826896     18.115060     18.115060     36.230121
     -8.798283     19.240582     19.240582     38.481164
     -8.769671     20.069190     20.069190     40.138380
     -8.741059     20.283111     20.283111     40.566222
     -8.712446     19.806700     19.806700     39.613399
     -8.683834     18.834994     18.834994     37.669988
     -8.655222     17.684355     17.684355     35.368710
     -8.626609     16.620336     16.620336     33.240672
     -8.597997     15.783279     15.783279     31.566557
     -8.569385     15.207260     15.207260     30.414521
     -8.540773     14.873058     14.873058     29.746117
     -8.512160     14.747208     14.747208     29.494417
     -8.483548     14.784391     14.784391     29.568782
     -8.454936     14.906798     14.906798     29.813595
     -8.426323     15.003054     15.003054     30.006109
     -8.397711     14.976939     14.976939     29.953879
     -8.369099     14.822598     14.822598     29.645196
     -8.340486     14.650798     14.650798     29.301596
     -8.311874     14.617786     14.617786     29.235571
     -8.283262     14.816734     14.816734     29.633468
     -8.254649     15.233224     15.233224     30.466447
     -8.226037     15.773607     15.773607     31.547214
     -8.197425     16.315271     16.315271     32.630542
     -8.168813     16.782292     16.782292     33.564583
     -8.140200     17.245269     17.245269     34.490539
     -8.111588     17.934158     17.934158     35.868316
     -8.082976     19.065133     19.065133     38.130267
     -8.054363     20.585719     20.585719     41.171439
     -8.025751     22.079067     22.079067     44.158134
     -7.997139     22.950993     22.950993     45.901986
     -7.968526     22.779550     22.779550     45.559100
     -7.939914     21.574280     21.574280     43.148560
     -7.911302     19.764741     19.764741     39.529481
     -7.882690     17.927792     17.927792     35.855585
     -7.854077     16.431218     16.431218     32.862436
     -7.825465     15.238405     15.238405     30.476810
     -7.796853     14.034953     14.034953     28.069906
     -7.768240     12.592630     12.592630     25.185260
     -7.739628     11.055632     11.055632     22.111264
     -7.711016      9.891819      9.891819     19.783638
     -7.682403      9.575768      9.575768     19.151535
     -7.653791     10.297671     10.297671     20.595342
     -7.625179     11.900419     11.900419     23.800839
     -7.596567     14.016072     14.016072     28.032145
     -7.567954     16.260463     16.260463     32.520927
     -7.539342     18.374678     18.374678     36.749355
     -7.510730     20.263872     20.263872     40.527743
     -7.482117     21.929564     21.929564     43.859129
     -7.453505     23.343805     23.343805     46.687611
     -7.424893     24.364378     24.364378     48.728755
     -7.396280     24.768513     24.768513     49.537026
     -7.367668     24.373468     24.373468     48.746936
     -7.339056     23.137628     23.137628     46.275257
     -7.310443     21.184581     21.184581     42.369163
     -7.281831     18.775023     18.775023     37.550047
     -7.253219     16.263090     16.263090     32.526180
     -7.224607     14.042591     14.042591     28.085183
     -7.195994     12.471937     12.471937     24.943874
     -7.167382     11.781679     11.781679     23.563358
     -7.138770     12.014280     12.014280     24.028561
     -7.110157     13.058318     13.058318     26.116636
     -7.081545     14.753128     14.753128     29.506255
     -7.052933     16.951175     16.951175     33.902350
     -7.024320     19.483934     19.483934     38.967868
     -6.995708     22.111640     22.111640     44.223280
     -6.967096     24.548735     24.548735     49.097469
     -6.938484     26.550169     26.550169     53.100337
     -6.909871     27.990782     27.990782     55.981564
     -6.881259     28.897308     28.897308     57.794617
     -6.852647     29.402464     29.402464     58.804927
     -6.824034     29.613971     29.613971     59.227942
     -6.795422     29.496920     29.496920     58.993840
     -6.766810     28.916542     28.916542     57.833085
     -6.738197     27.834007     27.834007     55.668014
     -6.709585     26.462042     26.462042     52.924083
     -6.680973     25.219483     25.219483     50.438966
     -6.652361     24.509460     24.509460     49.018920
     -6.623748     24.480083     24.480083     48.960166
     -6.595136     24.951414     24.951414     49.902828
     -6.566524     25.586605     25.586605     51.173210
     -6.537911     26.162581     26.162581     52.325162
     -6.509299     26.691540     26.691540     53.383079
     -6.480687     27.335996     27.335996     54.671992
     -6.452074     28.289331     28.289331     56.578663
     -6.423462     29.735452     29.735452     59.470905
     -6.394850     31.803549     31.803549     63.607098
     -6.366237     34.451262     34.451262     68.902525
     -6.337625     37.403781     37.403781     74.807563
     -6.309013     40.299927     40.299927     80.599855
     -6.280401     42.965617     42.965617     85.931234
     -6.251788     45.559767     45.559767     91.119534
     -6.223176     48.452875     48.452875     96.905750
     -6.194564     51.955983     51.955983    103.911966
     -6.165951     56.136156     56.136156    112.272313
     -6.137339     60.847146     60.847146    121.694292
     -6.108727     65.884034     65.884034    131.768068
     -6.080114     71.048261     71.048261    142.096523
     -6.051502     76.061691     76.061691    152.123382
     -6.022890     80.557151     80.557151    161.114303
     -5.994278     84.348697     84.348697    168.697394
     -5.965665     87.740778     87.740778    175.481555
     -5.937053     91.385803     91.385803    182.771606
     -5.908441     95.663823     95.663823    191.327646
     -5.879828    100.228893    100.228893    200.457786
     -5.851216    104.286382    104.286382    208.572764
     -5.822604    107.334566    107.334566    214.669132
     -5.793991    109.563025    109.563025    219.126050
     -5.765379    111.509519    111.509519    223.019037
     -5.736767    113.400817    113.400817    226.801634
     -5.708155    114.904480    114.904480    229.808961
     -5.679542    115.532129    115.532129    231.064258
     -5.650930    115.222644    115.222644    230.445288
     -5.622318    114.472847    114.472847    228.945693
     -5.593705    113.932065    113.932065    227.864129
     -5.565093    113.937177    113.937177    227.874355
     -5.536481    114.378081    114.378081    228.756161
     -5.507868    114.831081    114.831081    229.662163
     -5.479256    114.753033    114.753033    229.506065
     -5.450644    113.694170    113.694170    227.388341
     -5.422031    111.508089    111.508089    223.016178
     -5.393419    108.404275    108.404275    216.808551
     -5.364807    104.749935    104.749935    209.499869
     -5.336195    100.782297    100.782297    201.564595
     -5.307582     96.504812     96.504812    193.009625
     -5.278970     91.863887     91.863887    183.727774
     -5.250358     87.020179     87.020179    174.040358
     -5.221745     82.411147     82.411147    164.822295
     -5.193133     78.467803     78.467803    156.935607
     -5.164521     75.181884     75.181884    150.363767
     -5.135908     71.951999     71.951999    143.903999
     -5.107296     68.000333     68.000333    136.000666
     -5.078684     63.119115     63.119115    126.238230
     -5.050072     58.041176     58.041176    116.082353
     -5.021459     53.959406     53.959406    107.918811
     -4.992847     51.567668     51.567668    103.135336
     -4.964235     50.540193     50.540193    101.080387
     -4.935622     49.955402     49.955402     99.910805
     -4.907010     49.255939     49.255939     98.511878
     -4.878398     48.870878     48.870878     97.741757
     -4.849785     49.982216     49.982216     99.964432
     -4.821173     53.664671     53.664671    107.329342
     -4.792561     60.092364     60.092364    120.184729
     -4.763948     68.364205     68.364205    136.728409
     -4.735336     76.960295     76.960295    153.920590
     -4.706724     84.408349     84.408349    168.816698
     -4.678112     89.758182     89.758182    179.516364
     -4.649499     92.793140     92.793140    185.586280
     -4.620887     94.097092     94.097092    188.194184
     -4.592275     94.953333     94.953333    189.906665
     -4.563662     96.889008     96.889008    193.778016
     -4.535050    100.872643    100.872643    201.745286
     -4.506438    106.629932    106.629932    213.259864
     -4.477825    112.713438    112.713438    225.426876
     -4.449213    117.451906    117.451906    234.903812
     -4.420601    120.086345    120.086345    240.172690
     -4.391989    121.135980    121.135980    242.271960
     -4.363376    121.677331    121.677331    243.354661
     -4.334764    122.179025    122.179025    244.358050
     -4.306152    121.935433    121.935433    243.870865
     -4.277539    119.613510    119.613510    239.227020
     -4.248927    114.409115    114.409115    228.818230
     -4.220315    106.764204    106.764204    213.528409
     -4.191702     98.092322     98.092322    196.184643
     -4.163090     89.931543     89.931543    179.863085
     -4.134478     83.329749     83.329749    166.659499
     -4.105866     78.818323     78.818323    157.636647
     -4.077253     76.712138     76.712138    153.424275
     -4.048641     77.259822     77.259822    154.519645
     -4.020029     80.401287     80.401287    160.802575
     -3.991416     85.365759     85.365759    170.731517
     -3.962804     90.674430     90.674430    181.348860
     -3.934192     94.835173     94.835173    189.670346
     -3.905579     97.250135     97.250135    194.500270
     -3.876967     98.474397     98.474397    196.948795
     -3.848355     99.564815     99.564815    199.129630
     -3.819742    101.229419    101.229419    202.458837
     -3.791130    103.636882    103.636882    207.273763
     -3.762518    106.859936    106.859936    213.719872
     -3.733906    111.145607    111.145607    222.291214
     -3.705293    116.520027    116.520027    233.040055
     -3.676681    122.170429    122.170429    244.340859
     -3.648069    126.400602    126.400602    252.801205
     -3.619456    127.386942    127.386942    254.773884
     -3.590844    124.196012    124.196012    248.392023
     -3.562232    117.310954    117.310954    234.621909
     -3.533619    108.329567    108.329567    216.659133
     -3.505007     99.114152     99.114152    198.228303
     -3.476395     91.004687     91.004687    182.009374
     -3.447783     84.538330     84.538330    169.076660
     -3.419170     79.661370     79.661370    159.322739
     -3.390558     76.102360     76.102360    152.204719
     -3.361946     73.604672     73.604672    147.209344
     -3.333333     71.950152     71.950152    143.900305
     -3.304721     70.903035     70.903035    141.806070
     -3.276109     70.226523     70.226523    140.453045
     -3.247496     69.774192     69.774192    139.548383
     -3.218884     69.505402     69.505402    139.010804
     -3.190272     69.341619     69.341619    138.683237
     -3.161660     69.031038     69.031038    138.062077
     -3.133047     68.271241     68.271241    136.542483
     -3.104435     67.047136     67.047136    134.094273
     -3.075823     65.791849     65.791849    131.583699
     -3.047210     65.074368     65.074368    130.148735
     -3.018598     65.049424     65.049424    130.098847
     -2.989986     65.263058     65.263058    130.526116
     -2.961373     65.103759     65.103759    130.207519
     -2.932761     64.486246     64.486246    128.972493
     -2.904149     64.029088     64.029088    128.058176
     -2.875536     64.477517     64.477517    128.955034
     -2.846924     65.957836     65.957836    131.915673
     -2.818312     67.869737     67.869737    135.739473
     -2.789700     69.516751     69.516751    139.033502
     -2.761087     70.763005     70.763005    141.526010
     -2.732475     72.050142     72.050142    144.100284
     -2.703863     73.885000     73.885000    147.770000
     -2.675250     76.425586     76.425586    152.851171
     -2.646638     79.520727     79.520727    159.041453
     -2.618026     82.987005     82.987005    165.974011
     -2.589413     86.735938     86.735938    173.471876
     -2.560801     90.642178     90.642178    181.284356
     -2.532189     94.335368     94.335368    188.670735
     -2.503577     97.159449     97.159449    194.318897
     -2.474964     98.445681     98.445681    196.891363
     -2.446352     98.030439     98.030439    196.060877
     -2.417740     96.631074     96.631074    193.262147
     -2.389127     95.580853     95.580853    191.161707
     -2.360515     95.882676     95.882676    191.765352
     -2.331903     97.299517     97.299517    194.599035
     -2.303290     98.399278     98.399278    196.798556
     -2.274678     97.692522     97.692522    195.385044
     -2.246066     94.921047     94.921047    189.842093
     -2.217454     91.303111     91.303111    182.606222
     -2.188841     88.467232     88.467232    176.934465
     -2.160229     87.047542     87.047542    174.095083
     -2.131617     86.243515     86.243515    172.487030
     -2.103004     84.726076     84.726076    169.452153
     -2.074392     81.994998     81.994998    163.989996
     -2.045780     78.892924     78.892924    157.785848
     -2.017167     76.815460     76.815460    153.630920
     -1.988555     76.377478     76.377478    152.754956
     -1.959943     76.751477     76.751477    153.502953
     -1.931330     76.264173     76.264173    152.528346
     -1.902718     73.767795     73.767795    147.535590
     -1.874106     69.664788     69.664788    139.329577
     -1.845494     65.735633     65.735633    131.471266
     -1.816881     63.908795     63.908795    127.817591
     -1.788269     64.982949     64.982949    129.965899
     -1.759657     68.268167     68.268167    136.536333
     -1.731044     72.263894     72.263894    144.527787
     -1.702432     75.696032     75.696032    151.392065
     -1.673820     78.132076     78.132076    156.264151
     -1.645207     79.883795     79.883795    159.767591
     -1.616595     81.458358     81.458358    162.916717
     -1.587983     83.039765     83.039765    166.079530
     -1.559371     84.371410     84.371410    168.742820
     -1.530758     85.105160     85.105160    170.210321
     -1.502146     85.287895     85.287895    170.575790
     -1.473534     85.459831     85.459831    170.919662
     -1.444921     86.175574     86.175574    172.351148
     -1.416309     87.393339     87.393339    174.786677
     -1.387697     88.369676     88.369676    176.739353
     -1.359084     88.174441     88.174441    176.348882
     -1.330472     86.322860     86.322860    172.645721
     -1.301860     83.001889     83.001889    166.003778
     -1.273247     78.854347     78.854347    157.708694
     -1.244635     74.635470     74.635470    149.270941
     -1.216023     70.949676     70.949676    141.899351
     -1.187411     68.032027     68.032027    136.064054
     -1.158798     65.580597     65.580597    131.161193
     -1.130186     62.858763     62.858763    125.717526
     -1.101574     59.191391     59.191391    118.382783
     -1.072961     54.524923     54.524923    109.049845
     -1.044349     49.500504     49.500504     99.001008
     -1.015737     44.917497     44.917497     89.834994
     -0.987124     41.111879     41.111879     82.223757
     -0.958512     37.861086     37.861086     75.722172
     -0.929900     34.821147     34.821147     69.642295
     -0.901288     31.918908     31.918908     63.837816
     -0.872675     29.263589     29.263589     58.527177
     -0.844063     26.798727     26.798727     53.597454
     -0.815451     24.226411     24.226411     48.452821
     -0.786838     21.335068     21.335068     42.670136
     -0.758226     18.329976     18.329976     36.659952
     -0.729614     15.770217     15.770217     31.540434
     -0.701001     14.158791     14.158791     28.317582
     -0.672389     13.550685     13.550685     27.101370
     -0.643777     13.485298     13.485298     26.970597
     -0.615165     13.283980     13.283980     26.567960
     -0.586552     12.494480     12.494480     24.988961
     -0.557940     11.151635     11.151635     22.303269
     -0.529328      9.664205      9.664205     19.328409
     -0.500715      8.454419      8.454419     16.908837
     -0.472103      7.670590      7.670590     15.341181
     -0.443491      7.171745      7.171745     14.343491
     -0.414878      6.708009      6.708009     13.416018
     -0.386266      6.093171      6.093171     12.186343
     -0.357654      5.264422      5.264422     10.528845
     -0.329041      4.268035      4.268035      8.536071
     -0.300429      3.232976      3.232976      6.465952
