# EIG2DOS: Utility for SIESTA to obtain the electronic density of states
#  E. Artacho, Apr 1999, A. Garcia, Apr 2012
# ------------------------------------------
# Eigenvalues read from 3mos2-3graphene.EIG
# Using smearing parameter:   0.100
# Using    700 points in energy range
# Selected bands: 1 to: 3918
# Emin, emax in file for selected band(s):    -23.1380800    159.8587400
# Nbands, Nspin, Nk   =   3918     1    13
# E_F                 =    -4.9040 eV --> (shifted to ZERO)
# Broadening          =     0.1000 eV
#
#        E            N(up)  (=)   N(down)         Ntot
    -10.000000      7.748917      7.748917     15.497833
     -9.971388      6.165405      6.165405     12.330810
     -9.942775      5.616389      5.616389     11.232777
     -9.914163      6.026455      6.026455     12.052911
     -9.885551      7.137118      7.137118     14.274236
     -9.856938      8.703209      8.703209     17.406417
     -9.828326     10.554443     10.554443     21.108886
     -9.799714     12.506169     12.506169     25.012337
     -9.771102     14.248517     14.248517     28.497034
     -9.742489     15.350792     15.350792     30.701585
     -9.713877     15.406917     15.406917     30.813834
     -9.685265     14.232458     14.232458     28.464917
     -9.656652     11.985335     11.985335     23.970670
     -9.628040      9.129576      9.129576     18.259153
     -9.599428      6.260155      6.260155     12.520310
     -9.570815      3.896811      3.896811      7.793622
     -9.542203      2.373421      2.373421      4.746842
     -9.513591      1.876117      1.876117      3.752234
     -9.484979      2.562324      2.562324      5.124649
     -9.456366      4.611518      4.611518      9.223036
     -9.427754      8.095113      8.095113     16.190227
     -9.399142     12.713148     12.713148     25.426297
     -9.370529     17.620204     17.620204     35.240409
     -9.341917     21.578090     21.578090     43.156179
     -9.313305     23.453303     23.453303     46.906606
     -9.284692     22.778875     22.778875     45.557750
     -9.256080     20.000037     20.000037     40.000075
     -9.227468     16.234824     16.234824     32.469648
     -9.198856     12.722177     12.722177     25.444354
     -9.170243     10.310524     10.310524     20.621049
     -9.141631      9.240304      9.240304     18.480608
     -9.113019      9.229853      9.229853     18.459706
     -9.084406      9.717981      9.717981     19.435962
     -9.055794     10.144479     10.144479     20.288958
     -9.027182     10.227940     10.227940     20.455881
     -8.998569     10.157835     10.157835     20.315669
     -8.969957     10.525284     10.525284     21.050568
     -8.941345     11.915662     11.915662     23.831324
     -8.912732     14.396575     14.396575     28.793150
     -8.884120     17.331097     17.331097     34.662194
     -8.855508     19.739491     19.739491     39.478983
     -8.826896     20.960248     20.960248     41.920497
     -8.798283     21.072442     21.072442     42.144883
     -8.769671     20.727739     20.727739     41.455477
     -8.741059     20.545095     20.545095     41.090191
     -8.712446     20.596509     20.596509     41.193019
     -8.683834     20.421355     20.421355     40.842710
     -8.655222     19.517797     19.517797     39.035595
     -8.626609     17.822308     17.822308     35.644615
     -8.597997     15.744689     15.744689     31.489377
     -8.569385     13.820404     13.820404     27.640808
     -8.540773     12.411866     12.411866     24.823731
     -8.512160     11.718121     11.718121     23.436242
     -8.483548     11.905813     11.905813     23.811626
     -8.454936     13.052855     13.052855     26.105711
     -8.426323     14.925223     14.925223     29.850446
     -8.397711     16.901119     16.901119     33.802237
     -8.369099     18.216531     18.216531     36.433063
     -8.340486     18.343749     18.343749     36.687497
     -8.311874     17.206211     17.206211     34.412422
     -8.283262     15.161467     15.161467     30.322934
     -8.254649     12.891333     12.891333     25.782665
     -8.226037     11.274270     11.274270     22.548541
     -8.197425     11.152209     11.152209     22.304418
     -8.168813     12.939564     12.939564     25.879127
     -8.140200     16.261738     16.261738     32.523477
     -8.111588     19.969408     19.969408     39.938816
     -8.082976     22.701591     22.701591     45.403181
     -8.054363     23.718304     23.718304     47.436607
     -8.025751     23.374375     23.374375     46.748751
     -7.997139     22.775268     22.775268     45.550537
     -7.968526     22.822202     22.822202     45.644405
     -7.939914     23.431451     23.431451     46.862903
     -7.911302     23.598178     23.598178     47.196356
     -7.882690     22.236323     22.236323     44.472645
     -7.854077     19.070924     19.070924     38.141848
     -7.825465     14.881908     14.881908     29.763816
     -7.796853     10.992952     10.992952     21.985904
     -7.768240      8.467597      8.467597     16.935193
     -7.739628      7.582014      7.582014     15.164028
     -7.711016      7.850310      7.850310     15.700620
     -7.682403      8.501968      8.501968     17.003937
     -7.653791      9.067735      9.067735     18.135470
     -7.625179      9.687185      9.687185     19.374371
     -7.596567     10.936618     10.936618     21.873237
     -7.567954     13.320599     13.320599     26.641197
     -7.539342     16.825615     16.825615     33.651230
     -7.510730     20.862791     20.862791     41.725582
     -7.482117     24.589306     24.589306     49.178611
     -7.453505     27.317319     27.317319     54.634637
     -7.424893     28.728623     28.728623     57.457246
     -7.396280     28.835085     28.835085     57.670170
     -7.367668     27.814726     27.814726     55.629452
     -7.339056     25.874990     25.874990     51.749981
     -7.310443     23.201828     23.201828     46.403656
     -7.281831     19.970979     19.970979     39.941957
     -7.253219     16.387791     16.387791     32.775582
     -7.224607     12.744532     12.744532     25.489063
     -7.195994      9.474737      9.474737     18.949474
     -7.167382      7.150853      7.150853     14.301705
     -7.138770      6.374195      6.374195     12.748391
     -7.110157      7.560520      7.560520     15.121041
     -7.081545     10.698676     10.698676     21.397352
     -7.052933     15.227516     15.227516     30.455031
     -7.024320     20.177469     20.177469     40.354937
     -6.995708     24.568836     24.568836     49.137672
     -6.967096     27.816239     27.816239     55.632478
     -6.938484     29.834557     29.834557     59.669115
     -6.909871     30.816697     30.816697     61.633393
     -6.881259     30.974204     30.974204     61.948408
     -6.852647     30.504785     30.504785     61.009570
     -6.824034     29.714869     29.714869     59.429738
     -6.795422     29.017104     29.017104     58.034207
     -6.766810     28.698829     28.698829     57.397657
     -6.738197     28.683865     28.683865     57.367730
     -6.709585     28.581851     28.581851     57.163702
     -6.680973     28.039973     28.039973     56.079946
     -6.652361     27.088813     27.088813     54.177625
     -6.623748     26.178047     26.178047     52.356095
     -6.595136     25.924445     25.924445     51.848890
     -6.566524     26.846782     26.846782     53.693564
     -6.537911     29.267056     29.267056     58.534112
     -6.509299     33.314378     33.314378     66.628755
     -6.480687     38.902175     38.902175     77.804351
     -6.452074     45.661641     45.661641     91.323282
     -6.423462     52.909437     52.909437    105.818874
     -6.394850     59.736072     59.736072    119.472143
     -6.366237     65.250095     65.250095    130.500190
     -6.337625     68.906104     68.906104    137.812208
     -6.309013     70.745371     70.745371    141.490741
     -6.280401     71.411063     71.411063    142.822125
     -6.251788     71.953486     71.953486    143.906972
     -6.223176     73.545225     73.545225    147.090450
     -6.194564     77.194617     77.194617    154.389234
     -6.165951     83.486984     83.486984    166.973968
     -6.137339     92.409446     92.409446    184.818891
     -6.108727    103.350820    103.350820    206.701639
     -6.080114    115.269289    115.269289    230.538579
     -6.051502    126.869394    126.869394    253.738789
     -6.022890    136.697286    136.697286    273.394573
     -5.994278    143.340041    143.340041    286.680083
     -5.965665    145.947847    145.947847    291.895694
     -5.937053    144.843511    144.843511    289.687022
     -5.908441    141.574009    141.574009    283.148017
     -5.879828    138.078875    138.078875    276.157751
     -5.851216    135.498963    135.498963    270.997926
     -5.822604    133.586288    133.586288    267.172577
     -5.793991    131.184376    131.184376    262.368751
     -5.765379    127.320840    127.320840    254.641680
     -5.736767    121.980238    121.980238    243.960477
     -5.708155    115.975640    115.975640    231.951280
     -5.679542    110.130018    110.130018    220.260036
     -5.650930    104.540294    104.540294    209.080588
     -5.622318     98.594343     98.594343    197.188685
     -5.593705     91.724889     91.724889    183.449778
     -5.565093     84.198518     84.198518    168.397037
     -5.536481     77.199451     77.199451    154.398902
     -5.507868     72.120193     72.120193    144.240386
     -5.479256     69.657058     69.657058    139.314116
     -5.450644     69.385536     69.385536    138.771072
     -5.422031     70.006640     70.006640    140.013279
     -5.393419     69.979511     69.979511    139.959021
     -5.364807     68.167403     68.167403    136.334806
     -5.336195     64.278107     64.278107    128.556214
     -5.307582     58.976130     58.976130    117.952261
     -5.278970     53.587118     53.587118    107.174236
     -5.250358     49.491957     49.491957     98.983913
     -5.221745     47.547917     47.547917     95.095834
     -5.193133     47.863920     47.863920     95.727840
     -5.164521     49.940880     49.940880     99.881761
     -5.135908     52.934011     52.934011    105.868022
     -5.107296     55.880405     55.880405    111.760810
     -5.078684     57.948201     57.948201    115.896403
     -5.050072     58.760546     58.760546    117.521092
     -5.021459     58.667073     58.667073    117.334147
     -4.992847     58.763557     58.763557    117.527114
     -4.964235     60.604080     60.604080    121.208160
     -4.935622     65.757098     65.757098    131.514195
     -4.907010     75.404961     75.404961    150.809923
     -4.878398     90.018543     90.018543    180.037086
     -4.849785    109.002892    109.002892    218.005783
     -4.821173    130.384096    130.384096    260.768192
     -4.792561    150.903230    150.903230    301.806461
     -4.763948    166.798054    166.798054    333.596109
     -4.735336    175.035828    175.035828    350.071656
     -4.706724    174.355516    174.355516    348.711032
     -4.678112    165.575353    165.575353    331.150706
     -4.649499    151.059499    151.059499    302.118998
     -4.620887    133.689689    133.689689    267.379378
     -4.592275    115.929333    115.929333    231.858667
     -4.563662     99.424953     99.424953    198.849907
     -4.535050     85.141690     85.141690    170.283380
     -4.506438     73.691920     73.691920    147.383839
     -4.477825     65.546776     65.546776    131.093552
     -4.449213     61.019806     61.019806    122.039612
     -4.420601     60.046364     60.046364    120.092727
     -4.391989     61.905140     61.905140    123.810281
     -4.363376     65.175072     65.175072    130.350144
     -4.334764     68.185953     68.185953    136.371906
     -4.306152     69.879685     69.879685    139.759370
     -4.277539     70.592983     70.592983    141.185967
     -4.248927     72.176879     72.176879    144.353759
     -4.220315     77.210796     77.210796    154.421592
     -4.191702     87.637694     87.637694    175.275388
     -4.163090    103.549636    103.549636    207.099272
     -4.134478    122.790360    122.790360    245.580719
     -4.105866    141.569581    141.569581    283.139163
     -4.077253    155.774208    155.774208    311.548416
     -4.048641    162.410662    162.410662    324.821323
     -4.020029    160.601713    160.601713    321.203427
     -3.991416    151.698298    151.698298    303.396595
     -3.962804    138.433836    138.433836    276.867673
     -3.934192    123.623422    123.623422    247.246844
     -3.905579    109.239523    109.239523    218.479046
     -3.876967     96.339233     96.339233    192.678467
     -3.848355     85.566807     85.566807    171.133615
     -3.819742     77.576621     77.576621    155.153243
     -3.791130     72.991812     72.991812    145.983623
     -3.762518     72.013038     72.013038    144.026076
     -3.733906     74.076345     74.076345    148.152690
     -3.705293     77.908619     77.908619    155.817237
     -3.676681     81.993703     81.993703    163.987407
     -3.648069     85.088021     85.088021    170.176041
     -3.619456     86.419251     86.419251    172.838501
     -3.590844     85.608621     85.608621    171.217241
     -3.562232     82.639388     82.639388    165.278777
     -3.533619     77.964912     77.964912    155.929824
     -3.505007     72.488149     72.488149    144.976299
     -3.476395     67.224441     67.224441    134.448881
     -3.447783     62.870731     62.870731    125.741463
     -3.419170     59.653981     59.653981    119.307962
     -3.390558     57.537017     57.537017    115.074034
     -3.361946     56.522798     56.522798    113.045597
     -3.333333     56.762668     56.762668    113.525336
     -3.304721     58.390856     58.390856    116.781711
     -3.276109     61.268885     61.268885    122.537771
     -3.247496     64.932236     64.932236    129.864473
     -3.218884     68.849936     68.849936    137.699872
     -3.190272     72.764497     72.764497    145.528993
     -3.161660     76.749874     76.749874    153.499749
     -3.133047     80.886577     80.886577    161.773155
     -3.104435     84.845789     84.845789    169.691578
     -3.075823     87.803228     87.803228    175.606455
     -3.047210     88.834980     88.834980    177.669961
     -3.018598     87.518134     87.518134    175.036267
     -2.989986     84.272333     84.272333    168.544665
     -2.961373     80.209070     80.209070    160.418141
     -2.932761     76.650809     76.650809    153.301618
     -2.904149     74.668068     74.668068    149.336137
     -2.875536     74.864600     74.864600    149.729200
     -2.846924     77.390210     77.390210    154.780419
     -2.818312     82.002977     82.002977    164.005954
     -2.789700     88.082288     88.082288    176.164575
     -2.761087     94.705424     94.705424    189.410848
     -2.732475    100.910951    100.910951    201.821901
     -2.703863    106.001532    106.001532    212.003064
     -2.675250    109.587159    109.587159    219.174318
     -2.646638    111.329624    111.329624    222.659249
     -2.618026    110.718377    110.718377    221.436754
     -2.589413    107.225898    107.225898    214.451795
     -2.560801    100.827096    100.827096    201.654193
     -2.532189     92.463292     92.463292    184.926585
     -2.503577     83.951134     83.951134    167.902267
     -2.474964     77.218682     77.218682    154.437364
     -2.446352     73.335326     73.335326    146.670653
     -2.417740     72.054047     72.054047    144.108094
     -2.389127     72.209856     72.209856    144.419713
     -2.360515     72.629752     72.629752    145.259505
     -2.331903     72.834846     72.834846    145.669693
     -2.303290     73.054651     73.054651    146.109302
     -2.274678     73.660879     73.660879    147.321758
     -2.246066     74.573704     74.573704    149.147408
     -2.217454     75.178258     75.178258    150.356515
     -2.188841     74.822129     74.822129    149.644259
     -2.160229     73.419458     73.419458    146.838916
     -2.131617     71.575622     71.575622    143.151244
     -2.103004     70.100385     70.100385    140.200770
     -2.074392     69.358732     69.358732    138.717463
     -2.045780     69.071038     69.071038    138.142075
     -2.017167     68.779299     68.779299    137.558599
     -1.988555     68.581548     68.581548    137.163095
     -1.959943     69.441597     69.441597    138.883195
     -1.931330     72.705344     72.705344    145.410687
     -1.902718     79.124722     79.124722    158.249443
     -1.874106     88.096484     88.096484    176.192967
     -1.845494     97.660796     97.660796    195.321592
     -1.816881    105.303601    105.303601    210.607201
     -1.788269    109.127942    109.127942    218.255884
     -1.759657    108.704276    108.704276    217.408552
     -1.731044    105.060620    105.060620    210.121241
     -1.702432     99.891482     99.891482    199.782964
     -1.673820     94.672075     94.672075    189.344151
     -1.645207     90.280129     90.280129    180.560258
     -1.616595     87.068557     87.068557    174.137114
     -1.587983     84.967212     84.967212    169.934425
     -1.559371     83.478188     83.478188    166.956376
     -1.530758     81.776164     81.776164    163.552328
     -1.502146     79.024641     79.024641    158.049281
     -1.473534     74.734287     74.734287    149.468574
     -1.444921     68.956366     68.956366    137.912733
     -1.416309     62.269955     62.269955    124.539910
     -1.387697     55.600792     55.600792    111.201585
     -1.359084     49.890844     49.890844     99.781688
     -1.330472     45.706341     45.706341     91.412682
     -1.301860     43.002728     43.002728     86.005456
     -1.273247     41.220101     41.220101     82.440201
     -1.244635     39.626776     39.626776     79.253552
     -1.216023     37.648407     37.648407     75.296815
     -1.187411     35.014463     35.014463     70.028925
     -1.158798     31.751672     31.751672     63.503344
     -1.130186     28.105416     28.105416     56.210833
     -1.101574     24.412097     24.412097     48.824194
     -1.072961     20.962942     20.962942     41.925885
     -1.044349     17.959261     17.959261     35.918522
     -1.015737     15.576671     15.576671     31.153341
     -0.987124     13.992194     13.992194     27.984389
     -0.958512     13.260877     13.260877     26.521754
     -0.929900     13.161247     13.161247     26.322493
     -0.901288     13.220954     13.220954     26.441908
     -0.872675     12.942939     12.942939     25.885877
     -0.844063     12.052159     12.052159     24.104319
     -0.815451     10.606148     10.606148     21.212297
     -0.786838      8.948232      8.948232     17.896465
     -0.758226      7.547325      7.547325     15.094651
     -0.729614      6.773457      6.773457     13.546914
     -0.701001      6.690895      6.690895     13.381790
     -0.672389      6.993543      6.993543     13.987085
     -0.643777      7.165674      7.165674     14.331348
     -0.615165      6.796962      6.796962     13.593925
     -0.586552      5.833071      5.833071     11.666142
     -0.557940      4.570410      4.570410      9.140819
     -0.529328      3.415107      3.415107      6.830213
     -0.500715      2.620347      2.620347      5.240693
     -0.472103      2.199428      2.199428      4.398856
     -0.443491      2.021566      2.021566      4.043133
     -0.414878      1.946400      1.946400      3.892800
     -0.386266      1.880171      1.880171      3.760342
     -0.357654      1.766199      1.766199      3.532397
     -0.329041      1.583189      1.583189      3.166378
     -0.300429      1.366818      1.366818      2.733637
