# EIG2DOS: Utility for SIESTA to obtain the electronic density of states
#  E. Artacho, Apr 1999, A. Garcia, Apr 2012
# ------------------------------------------
# Eigenvalues read from 3mos2-3graphene.EIG
# Using smearing parameter:   0.100
# Using    700 points in energy range
# Selected bands: 1 to: 3918
# Emin, emax in file for selected band(s):    -23.1907400    159.8119000
# Nbands, Nspin, Nk   =   3918     1    13
# E_F                 =    -4.9514 eV --> (shifted to ZERO)
# Broadening          =     0.1000 eV
#
#        E            N(up)  (=)   N(down)         Ntot
    -10.000000      8.024365      8.024365     16.048729
     -9.971388      6.588438      6.588438     13.176875
     -9.942775      6.029564      6.029564     12.059128
     -9.914163      6.351407      6.351407     12.702814
     -9.885551      7.389279      7.389279     14.778559
     -9.856938      8.918001      8.918001     17.836001
     -9.828326     10.706373     10.706373     21.412746
     -9.799714     12.504546     12.504546     25.009092
     -9.771102     14.010887     14.010887     28.021775
     -9.742489     14.880777     14.880777     29.761553
     -9.713877     14.812298     14.812298     29.624596
     -9.685265     13.679775     13.679775     27.359551
     -9.656652     11.626013     11.626013     23.252027
     -9.628040      9.036712      9.036712     18.073424
     -9.599428      6.409188      6.409188     12.818376
     -9.570815      4.205010      4.205010      8.410019
     -9.542203      2.773015      2.773015      5.546030
     -9.513591      2.362505      2.362505      4.725010
     -9.484979      3.170003      3.170003      6.340006
     -9.456366      5.325247      5.325247     10.650494
     -9.427754      8.766258      8.766258     17.532515
     -9.399142     13.072716     13.072716     26.145432
     -9.370529     17.421563     17.421563     34.843126
     -9.341917     20.785081     20.785081     41.570162
     -9.313305     22.319368     22.319368     44.638737
     -9.284692     21.731741     21.731741     43.463482
     -9.256080     19.405902     19.405902     38.811804
     -9.227468     16.213238     16.213238     32.426476
     -9.198856     13.130232     13.130232     26.260464
     -9.170243     10.873343     10.873343     21.746686
     -9.141631      9.706767      9.706767     19.413534
     -9.113019      9.457127      9.457127     18.914254
     -9.084406      9.689027      9.689027     19.378055
     -9.055794      9.969415      9.969415     19.938829
     -9.027182     10.121332     10.121332     20.242664
     -8.998569     10.333998     10.333998     20.667997
     -8.969957     11.029266     11.029266     22.058531
     -8.941345     12.530890     12.530890     25.061780
     -8.912732     14.759401     14.759401     29.518802
     -8.884120     17.203350     17.203350     34.406699
     -8.855508     19.214617     19.214617     38.429233
     -8.826896     20.402373     20.402373     40.804747
     -8.798283     20.819863     20.819863     41.639727
     -8.769671     20.819522     20.819522     41.639044
     -8.741059     20.718223     20.718223     41.436445
     -8.712446     20.549501     20.549501     41.099003
     -8.683834     20.089404     20.089404     40.178808
     -8.655222     19.101473     19.101473     38.202947
     -8.626609     17.568746     17.568746     35.137493
     -8.597997     15.734424     15.734424     31.468848
     -8.569385     13.977297     13.977297     27.954594
     -8.540773     12.667862     12.667862     25.335725
     -8.512160     12.088144     12.088144     24.176288
     -8.483548     12.380871     12.380871     24.761742
     -8.454936     13.482029     13.482029     26.964059
     -8.426323     15.076096     15.076096     30.152193
     -8.397711     16.651844     16.651844     33.303688
     -8.369099     17.663773     17.663773     35.327546
     -8.340486     17.721956     17.721956     35.443911
     -8.311874     16.737559     16.737559     33.475117
     -8.283262     14.993668     14.993668     29.987336
     -8.254649     13.115101     13.115101     26.230203
     -8.226037     11.902596     11.902596     23.805192
     -8.197425     12.035276     12.035276     24.070553
     -8.168813     13.735009     13.735009     27.470017
     -8.140200     16.578261     16.578261     33.156522
     -8.111588     19.637959     19.637959     39.275917
     -8.082976     21.956645     21.956645     43.913290
     -8.054363     23.077899     23.077899     46.155798
     -8.025751     23.249182     23.249182     46.498365
     -7.997139     23.121783     23.121783     46.243567
     -7.968526     23.170161     23.170161     46.340322
     -7.939914     23.287357     23.287357     46.574715
     -7.911302     22.867779     22.867779     45.735559
     -7.882690     21.294600     21.294600     42.589201
     -7.854077     18.449999     18.449999     36.899998
     -7.825465     14.880758     14.880758     29.761516
     -7.796853     11.518930     11.518930     23.037860
     -7.768240      9.164902      9.164902     18.329805
     -7.739628      8.090259      8.090259     16.180518
     -7.711016      8.016325      8.016325     16.032650
     -7.682403      8.444336      8.444336     16.888673
     -7.653791      9.068238      9.068238     18.136476
     -7.625179      9.972703      9.972703     19.945405
     -7.596567     11.504087     11.504087     23.008174
     -7.567954     13.941812     13.941812     27.883624
     -7.539342     17.219431     17.219431     34.438861
     -7.510730     20.879580     20.879580     41.759159
     -7.482117     24.265386     24.265386     48.530772
     -7.453505     26.797487     26.797487     53.594975
     -7.424893     28.159488     28.159488     56.318976
     -7.396280     28.309690     28.309690     56.619381
     -7.367668     27.369839     27.369839     54.739679
     -7.339056     25.508428     25.508428     51.016855
     -7.310443     22.894670     22.894670     45.789339
     -7.281831     19.716241     19.716241     39.432481
     -7.253219     16.218347     16.218347     32.436693
     -7.224607     12.737131     12.737131     25.474262
     -7.195994      9.715244      9.715244     19.430488
     -7.167382      7.677946      7.677946     15.355891
     -7.138770      7.134508      7.134508     14.269016
     -7.110157      8.395167      8.395167     16.790334
     -7.081545     11.377236     11.377236     22.754473
     -7.052933     15.546310     15.546310     31.092620
     -7.024320     20.085000     20.085000     40.170000
     -6.995708     24.205270     24.205270     48.410540
     -6.967096     27.396328     27.396328     54.792656
     -6.938484     29.475841     29.475841     58.951683
     -6.909871     30.499765     30.499765     60.999529
     -6.881259     30.668208     30.668208     61.336416
     -6.852647     30.279967     30.279967     60.559934
     -6.824034     29.681658     29.681658     59.363316
     -6.795422     29.160822     29.160822     58.321644
     -6.766810     28.820207     28.820207     57.640414
     -6.738197     28.534685     28.534685     57.069369
     -6.709585     28.058979     28.058979     56.117958
     -6.680973     27.233901     27.233901     54.467801
     -6.652361     26.137913     26.137913     52.275825
     -6.623748     25.070306     25.070306     50.140612
     -6.595136     24.408147     24.408147     48.816293
     -6.566524     24.480708     24.480708     48.961416
     -6.537911     25.543372     25.543372     51.086744
     -6.509299     27.798367     27.798367     55.596735
     -6.480687     31.369624     31.369624     62.739248
     -6.452074     36.220182     36.220182     72.440365
     -6.423462     42.071609     42.071609     84.143217
     -6.394850     48.371763     48.371763     96.743525
     -6.366237     54.344508     54.344508    108.689016
     -6.337625     59.183181     59.183181    118.366362
     -6.309013     62.396434     62.396434    124.792867
     -6.280401     64.137575     64.137575    128.275150
     -6.251788     65.251023     65.251023    130.502046
     -6.223176     66.935028     66.935028    133.870057
     -6.194564     70.222227     70.222227    140.444454
     -6.165951     75.616148     75.616148    151.232296
     -6.137339     83.054858     83.054858    166.109716
     -6.108727     92.075042     92.075042    184.150085
     -6.080114    101.933207    101.933207    203.866413
     -6.051502    111.621076    111.621076    223.242152
     -6.022890    119.956542    119.956542    239.913083
     -5.994278    125.919641    125.919641    251.839282
     -5.965665    129.126357    129.126357    258.252714
     -5.937053    130.103763    130.103763    260.207526
     -5.908441    130.089182    130.089182    260.178364
     -5.879828    130.368257    130.368257    260.736513
     -5.851216    131.503729    131.503729    263.007457
     -5.822604    132.988772    132.988772    265.977544
     -5.793991    133.661281    133.661281    267.322563
     -5.765379    132.631108    132.631108    265.262216
     -5.736767    129.972530    129.972530    259.945060
     -5.708155    126.581191    126.581191    253.162382
     -5.679542    123.323800    123.323800    246.647600
     -5.650930    120.226032    120.226032    240.452064
     -5.622318    116.389171    116.389171    232.778342
     -5.593705    110.705103    110.705103    221.410205
     -5.565093    102.811408    102.811408    205.622816
     -5.536481     93.566924     93.566924    187.133849
     -5.507868     84.696855     84.696855    169.393710
     -5.479256     77.856005     77.856005    155.712009
     -5.450644     73.769150     73.769150    147.538300
     -5.422031     72.020059     72.020059    144.040119
     -5.393419     71.513809     71.513809    143.027619
     -5.364807     71.121222     71.121222    142.242444
     -5.336195     70.042198     70.042198    140.084396
     -5.307582     67.873636     67.873636    135.747272
     -5.278970     64.620994     64.620994    129.241989
     -5.250358     60.716088     60.716088    121.432176
     -5.221745     56.897036     56.897036    113.794073
     -5.193133     53.903775     53.903775    107.807550
     -5.164521     52.162443     52.162443    104.324886
     -5.135908     51.650507     51.650507    103.301015
     -5.107296     51.959633     51.959633    103.919265
     -5.078684     52.469881     52.469881    104.939762
     -5.050072     52.607570     52.607570    105.215141
     -5.021459     52.165321     52.165321    104.330643
     -4.992847     51.512450     51.512450    103.024899
     -4.964235     51.492861     51.492861    102.985723
     -4.935622     53.091625     53.091625    106.183250
     -4.907010     57.205228     57.205228    114.410455
     -4.878398     64.637218     64.637218    129.274435
     -4.849785     75.993443     75.993443    151.986887
     -4.821173     91.178022     91.178022    182.356043
     -4.792561    108.828932    108.828932    217.657865
     -4.763948    126.450964    126.450964    252.901929
     -4.735336    141.446942    141.446942    282.893885
     -4.706724    152.223800    152.223800    304.447599
     -4.678112    158.372155    158.372155    316.744311
     -4.649499    159.939907    159.939907    319.879814
     -4.620887    156.804362    156.804362    313.608724
     -4.592275    148.877912    148.877912    297.755825
     -4.563662    136.794631    136.794631    273.589262
     -4.535050    122.206576    122.206576    244.413151
     -4.506438    107.339989    107.339989    214.679978
     -4.477825     94.210946     94.210946    188.421893
     -4.449213     84.061589     84.061589    168.123178
     -4.420601     77.229296     77.229296    154.458592
     -4.391989     73.331307     73.331307    146.662613
     -4.363376     71.561634     71.561634    143.123267
     -4.334764     70.951147     70.951147    141.902294
     -4.306152     70.562708     70.562708    141.125417
     -4.277539     69.733892     69.733892    139.467784
     -4.248927     68.451758     68.451758    136.903516
     -4.220315     67.657970     67.657970    135.315939
     -4.191702     69.059260     69.059260    138.118520
     -4.163090     74.287719     74.287719    148.575438
     -4.134478     83.901686     83.901686    167.803372
     -4.105866     97.017075     97.017075    194.034150
     -4.077253    111.821145    111.821145    223.642290
     -4.048641    126.373941    126.373941    252.747883
     -4.020029    138.965321    138.965321    277.930642
     -3.991416    148.006891    148.006891    296.013783
     -3.962804    152.025910    152.025910    304.051820
     -3.934192    150.074667    150.074667    300.149333
     -3.905579    142.251723    142.251723    284.503446
     -3.876967    129.889108    129.889108    259.778217
     -3.848355    115.304173    115.304173    230.608346
     -3.819742    101.261314    101.261314    202.522627
     -3.791130     90.259766     90.259766    180.519532
     -3.762518     83.785980     83.785980    167.571960
     -3.733906     81.845974     81.845974    163.691948
     -3.705293     83.098446     83.098446    166.196892
     -3.676681     85.556202     85.556202    171.112404
     -3.648069     87.423588     87.423588    174.847177
     -3.619456     87.615347     87.615347    175.230693
     -3.590844     85.843003     85.843003    171.686007
     -3.562232     82.455342     82.455342    164.910684
     -3.533619     78.214690     78.214690    156.429381
     -3.505007     74.024196     74.024196    148.048393
     -3.476395     70.587838     70.587838    141.175677
     -3.447783     68.135132     68.135132    136.270265
     -3.419170     66.425353     66.425353    132.850707
     -3.390558     65.061425     65.061425    130.122851
     -3.361946     63.848571     63.848571    127.697142
     -3.333333     62.875879     62.875879    125.751758
     -3.304721     62.292049     62.292049    124.584098
     -3.276109     62.086819     62.086819    124.173638
     -3.247496     62.160849     62.160849    124.321698
     -3.218884     62.575551     62.575551    125.151103
     -3.190272     63.628954     63.628954    127.257907
     -3.161660     65.635657     65.635657    131.271315
     -3.133047     68.649647     68.649647    137.299294
     -3.104435     72.371477     72.371477    144.742954
     -3.075823     76.229971     76.229971    152.459943
     -3.047210     79.531931     79.531931    159.063862
     -3.018598     81.656543     81.656543    163.313086
     -2.989986     82.280101     82.280101    164.560203
     -2.961373     81.531549     81.531549    163.063098
     -2.932761     79.964951     79.964951    159.929902
     -2.904149     78.321934     78.321934    156.643868
     -2.875536     77.190264     77.190264    154.380529
     -2.846924     76.792023     76.792023    153.584046
     -2.818312     77.099454     77.099454    154.198907
     -2.789700     78.184701     78.184701    156.369403
     -2.761087     80.433163     80.433163    160.866325
     -2.732475     84.350347     84.350347    168.700695
     -2.703863     90.080812     90.080812    180.161624
     -2.675250     97.016590     97.016590    194.033181
     -2.646638    103.810822    103.810822    207.621643
     -2.618026    108.862755    108.862755    217.725511
     -2.589413    111.046624    111.046624    222.093249
     -2.560801    110.222873    110.222873    220.445745
     -2.532189    107.121567    107.121567    214.243133
     -2.503577    102.671539    102.671539    205.343079
     -2.474964     97.402420     97.402420    194.804839
     -2.446352     91.496354     91.496354    182.992708
     -2.417740     85.331272     85.331272    170.662544
     -2.389127     79.771584     79.771584    159.543168
     -2.360515     75.771650     75.771650    151.543301
     -2.331903     73.694190     73.694190    147.388380
     -2.303290     73.080976     73.080976    146.161953
     -2.274678     73.086189     73.086189    146.172378
     -2.246066     73.096384     73.096384    146.192768
     -2.217454     72.991909     72.991909    145.983817
     -2.188841     72.968048     72.968048    145.936095
     -2.160229     73.209241     73.209241    146.418482
     -2.131617     73.703243     73.703243    147.406485
     -2.103004     74.262198     74.262198    148.524397
     -2.074392     74.618331     74.618331    149.236661
     -2.045780     74.445960     74.445960    148.891921
     -2.017167     73.373939     73.373939    146.747877
     -1.988555     71.224281     71.224281    142.448562
     -1.959943     68.468850     68.468850    136.937699
     -1.931330     66.415463     66.415463    132.830927
     -1.902718     66.651866     66.651866    133.303732
     -1.874106     70.026940     70.026940    140.053879
     -1.845494     76.081255     76.081255    152.162511
     -1.816881     83.460330     83.460330    166.920660
     -1.788269     90.823434     90.823434    181.646867
     -1.759657     97.320078     97.320078    194.640157
     -1.731044    102.339938    102.339938    204.679877
     -1.702432    105.135126    105.135126    210.270251
     -1.673820    105.001844    105.001844    210.003687
     -1.645207    101.934300    101.934300    203.868600
     -1.616595     96.982893     96.982893    193.965786
     -1.587983     91.783837     91.783837    183.567674
     -1.559371     87.602813     87.602813    175.205626
     -1.530758     84.719515     84.719515    169.439030
     -1.502146     82.562641     82.562641    165.125282
     -1.473534     80.285679     80.285679    160.571358
     -1.444921     77.274894     77.274894    154.549788
     -1.416309     73.382333     73.382333    146.764666
     -1.387697     68.901088     68.901088    137.802176
     -1.359084     64.305777     64.305777    128.611553
     -1.330472     59.889247     59.889247    119.778495
     -1.301860     55.618763     55.618763    111.237526
     -1.273247     51.387702     51.387702    102.775405
     -1.244635     47.354593     47.354593     94.709187
     -1.216023     43.887389     43.887389     87.774778
     -1.187411     41.115306     41.115306     82.230612
     -1.158798     38.634632     38.634632     77.269263
     -1.130186     35.767998     35.767998     71.535996
     -1.101574     32.126138     32.126138     64.252277
     -1.072961     27.907986     27.907986     55.815972
     -1.044349     23.718793     23.718793     47.437587
     -1.015737     20.170197     20.170197     40.340394
     -0.987124     17.608742     17.608742     35.217485
     -0.958512     16.064106     16.064106     32.128213
     -0.929900     15.305853     15.305853     30.611706
     -0.901288     14.920441     14.920441     29.840882
     -0.872675     14.432443     14.432443     28.864887
     -0.844063     13.503341     13.503341     27.006683
     -0.815451     12.119596     12.119596     24.239193
     -0.786838     10.602118     10.602118     21.204237
     -0.758226      9.390457      9.390457     18.780915
     -0.729614      8.762001      8.762001     17.524001
     -0.701001      8.684581      8.684581     17.369162
     -0.672389      8.854187      8.854187     17.708373
     -0.643777      8.851472      8.851472     17.702944
     -0.615165      8.344826      8.344826     16.689653
     -0.586552      7.263154      7.263154     14.526308
     -0.557940      5.832109      5.832109     11.664217
     -0.529328      4.426515      4.426515      8.853030
     -0.500715      3.342865      3.342865      6.685730
     -0.472103      2.667780      2.667780      5.335561
     -0.443491      2.312868      2.312868      4.625735
     -0.414878      2.130285      2.130285      4.260570
     -0.386266      1.993367      1.993367      3.986733
     -0.357654      1.819920      1.819920      3.639840
     -0.329041      1.583633      1.583633      3.167265
     -0.300429      1.327473      1.327473      2.654946
