# EIG2DOS: Utility for SIESTA to obtain the electronic density of states
#  E. Artacho, Apr 1999, A. Garcia, Apr 2012
# ------------------------------------------
# Eigenvalues read from 3mos2-3graphene.EIG
# Using smearing parameter:   0.100
# Using    700 points in energy range
# Selected bands: 1 to: 3918
# Emin, emax in file for selected band(s):    -23.5006500    159.5820300
# Nbands, Nspin, Nk   =   3918     1    13
# E_F                 =    -5.1831 eV --> (shifted to ZERO)
# Broadening          =     0.1000 eV
#
#        E            N(up)  (=)   N(down)         Ntot
    -10.000000     10.679454     10.679454     21.358907
     -9.971388     10.775921     10.775921     21.551843
     -9.942775     10.900151     10.900151     21.800302
     -9.914163     10.916665     10.916665     21.833331
     -9.885551     10.767252     10.767252     21.534504
     -9.856938     10.524441     10.524441     21.048882
     -9.828326     10.302171     10.302171     20.604343
     -9.799714     10.133270     10.133270     20.266541
     -9.771102      9.953743      9.953743     19.907486
     -9.742489      9.694963      9.694963     19.389927
     -9.713877      9.361208      9.361208     18.722417
     -9.685265      9.015182      9.015182     18.030364
     -9.656652      8.724187      8.724187     17.448375
     -9.628040      8.549970      8.549970     17.099940
     -9.599428      8.573719      8.573719     17.147438
     -9.570815      8.881148      8.881148     17.762296
     -9.542203      9.485200      9.485200     18.970401
     -9.513591     10.261833     10.261833     20.523666
     -9.484979     10.990077     10.990077     21.980153
     -9.456366     11.492626     11.492626     22.985252
     -9.427754     11.761391     11.761391     23.522782
     -9.399142     11.947241     11.947241     23.894482
     -9.370529     12.220403     12.220403     24.440807
     -9.341917     12.641741     12.641741     25.283481
     -9.313305     13.166408     13.166408     26.332817
     -9.284692     13.738621     13.738621     27.477243
     -9.256080     14.325846     14.325846     28.651693
     -9.227468     14.833764     14.833764     29.667529
     -9.198856     15.036342     15.036342     30.072683
     -9.170243     14.690792     14.690792     29.381585
     -9.141631     13.795347     13.795347     27.590695
     -9.113019     12.720964     12.720964     25.441928
     -9.084406     12.010839     12.010839     24.021678
     -9.055794     11.980607     11.980607     23.961213
     -9.027182     12.500742     12.500742     25.001485
     -8.998569     13.187299     13.187299     26.374597
     -8.969957     13.799123     13.799123     27.598247
     -8.941345     14.414400     14.414400     28.828800
     -8.912732     15.216125     15.216125     30.432250
     -8.884120     16.170561     16.170561     32.341122
     -8.855508     16.997495     16.997495     33.994989
     -8.826896     17.470352     17.470352     34.940703
     -8.798283     17.678718     17.678718     35.357436
     -8.769671     17.914294     17.914294     35.828589
     -8.741059     18.284080     18.284080     36.568160
     -8.712446     18.511167     18.511167     37.022334
     -8.683834     18.211553     18.211553     36.423106
     -8.655222     17.378283     17.378283     34.756567
     -8.626609     16.503745     16.503745     33.007490
     -8.597997     16.137304     16.137304     32.274608
     -8.569385     16.332888     16.332888     32.665776
     -8.540773     16.606553     16.606553     33.213106
     -8.512160     16.453421     16.453421     32.906841
     -8.483548     15.826895     15.826895     31.653789
     -8.454936     15.061841     15.061841     30.123681
     -8.426323     14.431638     14.431638     28.863277
     -8.397711     13.945848     13.945848     27.891696
     -8.369099     13.593540     13.593540     27.187081
     -8.340486     13.600864     13.600864     27.201728
     -8.311874     14.267819     14.267819     28.535638
     -8.283262     15.547814     15.547814     31.095627
     -8.254649     16.916131     16.916131     33.832263
     -8.226037     17.757285     17.757285     35.514570
     -8.197425     17.898848     17.898848     35.797696
     -8.168813     17.742375     17.742375     35.484750
     -8.140200     17.860539     17.860539     35.721079
     -8.111588     18.466604     18.466604     36.933208
     -8.082976     19.269787     19.269787     38.539574
     -8.054363     19.822952     19.822952     39.645904
     -8.025751     19.963508     19.963508     39.927017
     -7.997139     19.870798     19.870798     39.741596
     -7.968526     19.720462     19.720462     39.440924
     -7.939914     19.398028     19.398028     38.796056
     -7.911302     18.642935     18.642935     37.285871
     -7.882690     17.429032     17.429032     34.858063
     -7.854077     16.082010     16.082010     32.164021
     -7.825465     14.985098     14.985098     29.970196
     -7.796853     14.245586     14.245586     28.491172
     -7.768240     13.704065     13.704065     27.408130
     -7.739628     13.212740     13.212740     26.425479
     -7.711016     12.825396     12.825396     25.650793
     -7.682403     12.737488     12.737488     25.474976
     -7.653791     13.126362     13.126362     26.252724
     -7.625179     14.057313     14.057313     28.114626
     -7.596567     15.448969     15.448969     30.897939
     -7.567954     17.060856     17.060856     34.121711
     -7.539342     18.561621     18.561621     37.123242
     -7.510730     19.700420     19.700420     39.400840
     -7.482117     20.442164     20.442164     40.884328
     -7.453505     20.913579     20.913579     41.827158
     -7.424893     21.211500     21.211500     42.422999
     -7.396280     21.283076     21.283076     42.566152
     -7.367668     20.992907     20.992907     41.985813
     -7.339056     20.277794     20.277794     40.555587
     -7.310443     19.223480     19.223480     38.446960
     -7.281831     18.024118     18.024118     36.048236
     -7.253219     16.904265     16.904265     33.808530
     -7.224607     16.058937     16.058937     32.117875
     -7.195994     15.602572     15.602572     31.205145
     -7.167382     15.541867     15.541867     31.083734
     -7.138770     15.823648     15.823648     31.647297
     -7.110157     16.428476     16.428476     32.856952
     -7.081545     17.382614     17.382614     34.765228
     -7.052933     18.649708     18.649708     37.299416
     -7.024320     20.063702     20.063702     40.127403
     -6.995708     21.451480     21.451480     42.902960
     -6.967096     22.814985     22.814985     45.629970
     -6.938484     24.298544     24.298544     48.597088
     -6.909871     25.929148     25.929148     51.858297
     -6.881259     27.449023     27.449023     54.898046
     -6.852647     28.473939     28.473939     56.947877
     -6.824034     28.801961     28.801961     57.603922
     -6.795422     28.518396     28.518396     57.036792
     -6.766810     27.823912     27.823912     55.647824
     -6.738197     26.862491     26.862491     53.724982
     -6.709585     25.780266     25.780266     51.560532
     -6.680973     24.883762     24.883762     49.767525
     -6.652361     24.589776     24.589776     49.179551
     -6.623748     25.121621     25.121621     50.243242
     -6.595136     26.266422     26.266422     52.532844
     -6.566524     27.484126     27.484126     54.968252
     -6.537911     28.276778     28.276778     56.553556
     -6.509299     28.472390     28.472390     56.944781
     -6.480687     28.232855     28.232855     56.465711
     -6.452074     27.894908     27.894908     55.789816
     -6.423462     27.821450     27.821450     55.642901
     -6.394850     28.309507     28.309507     56.619013
     -6.366237     29.537176     29.537176     59.074352
     -6.337625     31.559654     31.559654     63.119307
     -6.309013     34.329651     34.329651     68.659303
     -6.280401     37.675956     37.675956     75.351912
     -6.251788     41.277410     41.277410     82.554819
     -6.223176     44.766176     44.766176     89.532351
     -6.194564     47.932221     47.932221     95.864441
     -6.165951     50.779772     50.779772    101.559544
     -6.137339     53.338471     53.338471    106.676942
     -6.108727     55.525190     55.525190    111.050381
     -6.080114     57.344427     57.344427    114.688854
     -6.051502     59.190192     59.190192    118.380384
     -6.022890     61.724304     61.724304    123.448608
     -5.994278     65.286918     65.286918    130.573835
     -5.965665     69.459834     69.459834    138.919667
     -5.937053     73.325341     73.325341    146.650682
     -5.908441     76.205946     76.205946    152.411892
     -5.879828     78.179524     78.179524    156.359049
     -5.851216     79.965504     79.965504    159.931009
     -5.822604     82.403576     82.403576    164.807153
     -5.793991     85.993498     85.993498    171.986997
     -5.765379     90.718116     90.718116    181.436232
     -5.736767     96.053635     96.053635    192.107270
     -5.708155    101.050484    101.050484    202.100967
     -5.679542    104.564667    104.564667    209.129335
     -5.650930    105.755515    105.755515    211.511029
     -5.622318    104.673724    104.673724    209.347448
     -5.593705    102.459352    102.459352    204.918705
     -5.565093    100.807572    100.807572    201.615145
     -5.536481    100.946882    100.946882    201.893764
     -5.507868    102.873658    102.873658    205.747316
     -5.479256    105.459732    105.459732    210.919463
     -5.450644    107.331777    107.331777    214.663555
     -5.422031    107.762461    107.762461    215.524922
     -5.393419    106.886091    106.886091    213.772182
     -5.364807    105.288367    105.288367    210.576734
     -5.336195    103.576280    103.576280    207.152560
     -5.307582    102.286781    102.286781    204.573563
     -5.278970    101.879953    101.879953    203.759906
     -5.250358    102.479968    102.479968    204.959936
     -5.221745    103.541064    103.541064    207.082128
     -5.193133    103.910879    103.910879    207.821757
     -5.164521    102.391987    102.391987    204.783974
     -5.135908     98.390359     98.390359    196.780719
     -5.107296     92.218287     92.218287    184.436573
     -5.078684     84.957394     84.957394    169.914788
     -5.050072     77.998194     77.998194    155.996388
     -5.021459     72.423292     72.423292    144.846585
     -4.992847     68.523172     68.523172    137.046344
     -4.964235     65.772949     65.772949    131.545898
     -4.935622     63.291273     63.291273    126.582547
     -4.907010     60.430631     60.430631    120.861261
     -4.878398     57.159250     57.159250    114.318501
     -4.849785     54.141481     54.141481    108.282963
     -4.821173     52.504696     52.504696    105.009392
     -4.792561     53.291602     53.291602    106.583205
     -4.763948     56.824138     56.824138    113.648276
     -4.735336     62.424249     62.424249    124.848499
     -4.706724     68.721777     68.721777    137.443554
     -4.678112     74.287683     74.287683    148.575367
     -4.649499     78.147228     78.147228    156.294456
     -4.620887     80.000036     80.000036    160.000071
     -4.592275     80.239147     80.239147    160.478294
     -4.563662     79.812826     79.812826    159.625652
     -4.535050     79.882199     79.882199    159.764399
     -4.506438     81.359918     81.359918    162.719837
     -4.477825     84.560819     84.560819    169.121638
     -4.449213     89.121365     89.121365    178.242731
     -4.420601     94.184309     94.184309    188.368617
     -4.391989     98.753974     98.753974    197.507948
     -4.363376    102.064896    102.064896    204.129792
     -4.334764    103.804265    103.804265    207.608530
     -4.306152    104.161119    104.161119    208.322238
     -4.277539    103.771986    103.771986    207.543973
     -4.248927    103.537900    103.537900    207.075801
     -4.220315    104.237858    104.237858    208.475716
     -4.191702    106.076357    106.076357    212.152713
     -4.163090    108.486561    108.486561    216.973122
     -4.134478    110.341984    110.341984    220.683968
     -4.105866    110.442772    110.442772    220.885545
     -4.077253    108.095030    108.095030    216.190060
     -4.048641    103.635243    103.635243    207.270486
     -4.020029     98.581137     98.581137    197.162273
     -3.991416     95.014134     95.014134    190.028267
     -3.962804     94.308230     94.308230    188.616459
     -3.934192     96.089531     96.089531    192.179063
     -3.905579     98.372131     98.372131    196.744262
     -3.876967     98.894370     98.894370    197.788739
     -3.848355     96.672325     96.672325    193.344650
     -3.819742     92.666016     92.666016    185.332032
     -3.791130     89.192971     89.192971    178.385942
     -3.762518     88.563580     88.563580    177.127159
     -3.733906     91.780436     91.780436    183.560872
     -3.705293     97.992281     97.992281    195.984562
     -3.676681    104.919276    104.919276    209.838552
     -3.648069    109.940548    109.940548    219.881096
     -3.619456    111.271853    111.271853    222.543705
     -3.590844    108.752670    108.752670    217.505340
     -3.562232    103.960381    103.960381    207.920763
     -3.533619     99.524219     99.524219    199.048438
     -3.505007     97.812437     97.812437    195.624874
     -3.476395     99.638118     99.638118    199.276235
     -3.447783    103.810321    103.810321    207.620642
     -3.419170    107.867565    107.867565    215.735130
     -3.390558    109.486626    109.486626    218.973252
     -3.361946    107.609922    107.609922    215.219844
     -3.333333    102.666210    102.666210    205.332420
     -3.304721     96.008328     96.008328    192.016655
     -3.276109     89.147161     89.147161    178.294321
     -3.247496     83.218741     83.218741    166.437482
     -3.218884     78.752716     78.752716    157.505432
     -3.190272     75.690363     75.690363    151.380726
     -3.161660     73.649126     73.649126    147.298251
     -3.133047     72.287345     72.287345    144.574690
     -3.104435     71.423877     71.423877    142.847754
     -3.075823     70.793285     70.793285    141.586570
     -3.047210     69.834829     69.834829    139.669659
     -3.018598     67.963488     67.963488    135.926977
     -2.989986     65.154632     65.154632    130.309263
     -2.961373     62.192127     62.192127    124.384253
     -2.932761     60.244113     60.244113    120.488227
     -2.904149     60.121229     60.121229    120.242458
     -2.875536     61.812036     61.812036    123.624073
     -2.846924     64.552017     64.552017    129.104035
     -2.818312     67.263227     67.263227    134.526454
     -2.789700     69.043933     69.043933    138.087866
     -2.761087     69.464786     69.464786    138.929573
     -2.732475     68.625770     68.625770    137.251540
     -2.703863     67.097359     67.097359    134.194719
     -2.675250     65.817532     65.817532    131.635065
     -2.646638     65.818601     65.818601    131.637202
     -2.618026     67.714858     67.714858    135.429716
     -2.589413     71.280225     71.280225    142.560449
     -2.560801     75.602142     75.602142    151.204283
     -2.532189     79.780825     79.780825    159.561650
     -2.503577     83.510417     83.510417    167.020834
     -2.474964     86.997791     86.997791    173.995581
     -2.446352     90.419275     90.419275    180.838551
     -2.417740     93.538315     93.538315    187.076629
     -2.389127     95.799542     95.799542    191.599084
     -2.360515     96.708738     96.708738    193.417476
     -2.331903     96.154831     96.154831    192.309662
     -2.303290     94.482513     94.482513    188.965027
     -2.274678     92.307868     92.307868    184.615735
     -2.246066     90.210569     90.210569    180.421137
     -2.217454     88.531616     88.531616    177.063232
     -2.188841     87.435645     87.435645    174.871289
     -2.160229     87.128409     87.128409    174.256817
     -2.131617     87.911473     87.911473    175.822946
     -2.103004     89.900723     89.900723    179.801445
     -2.074392     92.641646     92.641646    185.283291
     -2.045780     95.071815     95.071815    190.143631
     -2.017167     96.004215     96.004215    192.008429
     -1.988555     94.784894     94.784894    189.569788
     -1.959943     91.593735     91.593735    183.187470
     -1.931330     87.217077     87.217077    174.434154
     -1.902718     82.584877     82.584877    165.169755
     -1.874106     78.424648     78.424648    156.849297
     -1.845494     75.109560     75.109560    150.219120
     -1.816881     72.615636     72.615636    145.231271
     -1.788269     70.605284     70.605284    141.210568
     -1.759657     68.731084     68.731084    137.462168
     -1.731044     67.060233     67.060233    134.120466
     -1.702432     66.245219     66.245219    132.490437
     -1.673820     67.128873     67.128873    134.257746
     -1.645207     69.971064     69.971064    139.942128
     -1.616595     73.953153     73.953153    147.906305
     -1.587983     77.486672     77.486672    154.973344
     -1.559371     79.169632     79.169632    158.339265
     -1.530758     78.670305     78.670305    157.340611
     -1.502146     76.897569     76.897569    153.795137
     -1.473534     75.375640     75.375640    150.751280
     -1.444921     75.266528     75.266528    150.533056
     -1.416309     76.675322     76.675322    153.350643
     -1.387697     78.691674     78.691674    157.383348
     -1.359084     80.129342     80.129342    160.258685
     -1.330472     80.397023     80.397023    160.794046
     -1.301860     79.826029     79.826029    159.652058
     -1.273247     79.255254     79.255254    158.510509
     -1.244635     79.297722     79.297722    158.595445
     -1.216023     79.897209     79.897209    159.794417
     -1.187411     80.427744     80.427744    160.855488
     -1.158798     80.122274     80.122274    160.244549
     -1.130186     78.465599     78.465599    156.931198
     -1.101574     75.358065     75.358065    150.716129
     -1.072961     71.069460     71.069460    142.138919
     -1.044349     66.085289     66.085289    132.170579
     -1.015737     60.948123     60.948123    121.896246
     -0.987124     56.166743     56.166743    112.333487
     -0.958512     52.177649     52.177649    104.355297
     -0.929900     49.257906     49.257906     98.515812
     -0.901288     47.355265     47.355265     94.710530
     -0.872675     45.989203     45.989203     91.978406
     -0.844063     44.418623     44.418623     88.837246
     -0.815451     42.036016     42.036016     84.072031
     -0.786838     38.696363     38.696363     77.392727
     -0.758226     34.749771     34.749771     69.499542
     -0.729614     30.822137     30.822137     61.644274
     -0.701001     27.511478     27.511478     55.022956
     -0.672389     25.095736     25.095736     50.191473
     -0.643777     23.353095     23.353095     46.706191
     -0.615165     21.677065     21.677065     43.354131
     -0.586552     19.520960     19.520960     39.041920
     -0.557940     16.850573     16.850573     33.701146
     -0.529328     14.184204     14.184204     28.368409
     -0.500715     12.173179     12.173179     24.346358
     -0.472103     11.111212     11.111212     22.222424
     -0.443491     10.769718     10.769718     21.539437
     -0.414878     10.607690     10.607690     21.215380
     -0.386266     10.127975     10.127975     20.255951
     -0.357654      9.139475      9.139475     18.278951
     -0.329041      7.804207      7.804207     15.608415
     -0.300429      6.476803      6.476803     12.953606
