# EIG2DOS: Utility for SIESTA to obtain the electronic density of states
#  E. Artacho, Apr 1999, A. Garcia, Apr 2012
# ------------------------------------------
# Eigenvalues read from 2mos2-2graphene.EIG
# Using smearing parameter:   0.100
# Using    700 points in energy range
# Selected bands: 1 to: 2612
# Emin, emax in file for selected band(s):    -23.0527800    153.4049000
# Nbands, Nspin, Nk   =   2612     1    13
# E_F                 =    -4.8374 eV --> (shifted to ZERO)
# Broadening          =     0.1000 eV
#
#        E            N(up)  (=)   N(down)         Ntot
    -10.000000      5.143778      5.143778     10.287556
     -9.971388      4.037987      4.037987      8.075975
     -9.942775      3.642882      3.642882      7.285765
     -9.914163      3.904489      3.904489      7.808978
     -9.885551      4.643982      4.643982      9.287965
     -9.856938      5.699462      5.699462     11.398924
     -9.828326      6.966225      6.966225     13.932450
     -9.799714      8.325283      8.325283     16.650566
     -9.771102      9.559403      9.559403     19.118807
     -9.742489     10.359012     10.359012     20.718023
     -9.713877     10.431883     10.431883     20.863766
     -9.685265      9.645427      9.645427     19.290853
     -9.656652      8.110042      8.110042     16.220084
     -9.628040      6.151153      6.151153     12.302306
     -9.599428      4.184435      4.184435      8.368870
     -9.570815      2.568414      2.568414      5.136829
     -9.542203      1.523962      1.523962      3.047924
     -9.513591      1.162311      1.162311      2.324621
     -9.484979      1.577029      1.577029      3.154057
     -9.456366      2.892955      2.892955      5.785909
     -9.427754      5.184806      5.184806     10.369612
     -9.399142      8.288229      8.288229     16.576458
     -9.370529     11.656051     11.656051     23.312102
     -9.341917     14.438659     14.438659     28.877318
     -9.313305     15.821960     15.821960     31.643921
     -9.284692     15.436000     15.436000     30.871999
     -9.256080     13.555599     13.555599     27.111198
     -9.227468     10.952040     10.952040     21.904081
     -9.198856      8.503869      8.503869     17.007737
     -9.170243      6.821388      6.821388     13.642775
     -9.141631      6.080900      6.080900     12.161799
     -9.113019      6.085205      6.085205     12.170410
     -9.084406      6.439537      6.439537     12.879075
     -9.055794      6.747126      6.747126     13.494252
     -9.027182      6.798504      6.798504     13.597008
     -8.998569      6.711072      6.711072     13.422145
     -8.969957      6.898608      6.898608     13.797216
     -8.941345      7.797322      7.797322     15.594644
     -8.912732      9.492111      9.492111     18.984223
     -8.884120     11.551923     11.551923     23.103846
     -8.855508     13.264253     13.264253     26.528507
     -8.826896     14.118481     14.118481     28.236962
     -8.798283     14.145482     14.145482     28.290964
     -8.769671     13.824708     13.824708     27.649416
     -8.741059     13.641463     13.641463     27.282926
     -8.712446     13.683135     13.683135     27.366269
     -8.683834     13.621800     13.621800     27.243599
     -8.655222     13.069923     13.069923     26.139846
     -8.626609     11.950654     11.950654     23.901309
     -8.597997     10.542731     10.542731     21.085462
     -8.569385      9.225950      9.225950     18.451900
     -8.540773      8.251330      8.251330     16.502660
     -8.512160      7.748864      7.748864     15.497728
     -8.483548      7.839734      7.839734     15.679469
     -8.454936      8.604745      8.604745     17.209490
     -8.426323      9.906812      9.906812     19.813623
     -8.397711     11.311580     11.311580     22.623159
     -8.369099     12.261405     12.261405     24.522810
     -8.340486     12.368072     12.368072     24.736144
     -8.311874     11.580600     11.580600     23.161201
     -8.283262     10.159521     10.159521     20.319042
     -8.254649      8.576520      8.576520     17.153040
     -8.226037      7.425051      7.425051     14.850102
     -8.197425      7.281737      7.281737     14.563474
     -8.168813      8.452626      8.452626     16.905252
     -8.140200     10.711379     10.711379     21.422758
     -8.111588     13.277924     13.277924     26.555848
     -8.082976     15.188922     15.188922     30.377844
     -8.054363     15.890941     15.890941     31.781882
     -8.025751     15.610373     15.610373     31.220746
     -7.997139     15.140615     15.140615     30.281230
     -7.968526     15.159781     15.159781     30.319563
     -7.939914     15.640282     15.640282     31.280564
     -7.911302     15.864682     15.864682     31.729364
     -7.882690     15.027910     15.027910     30.055821
     -7.854077     12.900031     12.900031     25.800062
     -7.825465     10.018906     10.018906     20.037813
     -7.796853      7.324349      7.324349     14.648699
     -7.768240      5.576687      5.576687     11.153374
     -7.739628      4.977818      4.977818      9.955637
     -7.711016      5.186744      5.186744     10.373487
     -7.682403      5.652574      5.652574     11.305147
     -7.653791      6.028206      6.028206     12.056412
     -7.625179      6.398174      6.398174     12.796349
     -7.596567      7.170849      7.170849     14.341699
     -7.567954      8.722127      8.722127     17.444254
     -7.539342     11.069416     11.069416     22.138832
     -7.510730     13.817599     13.817599     27.635198
     -7.482117     16.379828     16.379828     32.759656
     -7.453505     18.267952     18.267952     36.535903
     -7.424893     19.249561     19.249561     38.499122
     -7.396280     19.327606     19.327606     38.655211
     -7.367668     18.631540     18.631540     37.263080
     -7.339056     17.320031     17.320031     34.640063
     -7.310443     15.533806     15.533806     31.067612
     -7.281831     13.390387     13.390387     26.780775
     -7.253219     11.008318     11.008318     22.016637
     -7.224607      8.554571      8.554571     17.109141
     -7.195994      6.292707      6.292707     12.585413
     -7.167382      4.588474      4.588474      9.176949
     -7.138770      3.842821      3.842821      7.685642
     -7.110157      4.362357      4.362357      8.724713
     -7.081545      6.209966      6.209966     12.419932
     -7.052933      9.106849      9.106849     18.213699
     -7.024320     12.477926     12.477926     24.955852
     -6.995708     15.674078     15.674078     31.348156
     -6.967096     18.248038     18.248038     36.496075
     -6.938484     20.067287     20.067287     40.134574
     -6.909871     21.186069     21.186069     42.372137
     -6.881259     21.655989     21.655989     43.311979
     -6.852647     21.513057     21.513057     43.026114
     -6.824034     20.935642     20.935642     41.871284
     -6.795422     20.314269     20.314269     40.628538
     -6.766810     20.047439     20.047439     40.094878
     -6.738197     20.221658     20.221658     40.443315
     -6.709585     20.537275     20.537275     41.074550
     -6.680973     20.626013     20.626013     41.252025
     -6.652361     20.483439     20.483439     40.966879
     -6.623748     20.591462     20.591462     41.182924
     -6.595136     21.607299     21.607299     43.214598
     -6.566524     23.905875     23.905875     47.811750
     -6.537911     27.358260     27.358260     54.716520
     -6.509299     31.471069     31.471069     62.942137
     -6.480687     35.692538     35.692538     71.385076
     -6.452074     39.603187     39.603187     79.206374
     -6.423462     42.918213     42.918213     85.836425
     -6.394850     45.484800     45.484800     90.969599
     -6.366237     47.404980     47.404980     94.809961
     -6.337625     49.096980     49.096980     98.193960
     -6.309013     51.036345     51.036345    102.072691
     -6.280401     53.336986     53.336986    106.673972
     -6.251788     55.702289     55.702289    111.404577
     -6.223176     57.955378     57.955378    115.910756
     -6.194564     60.621156     60.621156    121.242312
     -6.165951     64.840041     64.840041    129.680083
     -6.137339     71.573425     71.573425    143.146850
     -6.108727     80.794886     80.794886    161.589772
     -6.080114     91.284578     91.284578    182.569156
     -6.051502    101.007124    101.007124    202.014248
     -6.022890    107.733756    107.733756    215.467512
     -5.994278    109.747715    109.747715    219.495429
     -5.965665    106.559881    106.559881    213.119762
     -5.937053     99.322405     99.322405    198.644811
     -5.908441     90.521827     90.521827    181.043654
     -5.879828     82.899190     82.899190    165.798379
     -5.851216     78.118896     78.118896    156.237791
     -5.822604     76.005300     76.005300    152.010600
     -5.793991     74.901706     74.901706    149.803413
     -5.765379     72.947382     72.947382    145.894763
     -5.736767     69.333230     69.333230    138.666460
     -5.708155     64.601801     64.601801    129.203603
     -5.679542     59.924046     59.924046    119.848093
     -5.650930     56.168172     56.168172    112.336344
     -5.622318     53.556698     53.556698    107.113395
     -5.593705     51.925854     51.925854    103.851709
     -5.565093     51.019744     51.019744    102.039487
     -5.536481     50.446576     50.446576    100.893151
     -5.507868     49.531300     49.531300     99.062601
     -5.479256     47.540243     47.540243     95.080485
     -5.450644     44.293639     44.293639     88.587278
     -5.422031     40.548642     40.548642     81.097283
     -5.393419     37.586273     37.586273     75.172545
     -5.364807     36.247822     36.247822     72.495644
     -5.336195     36.305211     36.305211     72.610423
     -5.307582     36.737803     36.737803     73.475607
     -5.278970     36.596875     36.596875     73.193750
     -5.250358     35.662046     35.662046     71.324092
     -5.221745     34.434990     34.434990     68.869981
     -5.193133     33.669415     33.669415     67.338829
     -5.164521     33.927588     33.927588     67.855176
     -5.135908     35.449835     35.449835     70.899671
     -5.107296     38.271848     38.271848     76.543697
     -5.078684     42.362980     42.362980     84.725961
     -5.050072     47.649800     47.649800     95.299600
     -5.021459     53.975663     53.975663    107.951325
     -4.992847     61.114523     61.114523    122.229047
     -4.964235     68.842638     68.842638    137.685277
     -4.935622     76.952262     76.952262    153.904524
     -4.907010     85.151692     85.151692    170.303385
     -4.878398     92.949734     92.949734    185.899469
     -4.849785     99.640934     99.640934    199.281869
     -4.821173    104.386739    104.386739    208.773478
     -4.792561    106.346236    106.346236    212.692473
     -4.763948    104.885608    104.885608    209.771216
     -4.735336     99.858179     99.858179    199.716358
     -4.706724     91.768988     91.768988    183.537977
     -4.678112     81.646815     81.646815    163.293629
     -4.649499     70.739644     70.739644    141.479288
     -4.620887     60.302777     60.302777    120.605554
     -4.592275     51.495581     51.495581    102.991163
     -4.563662     45.158225     45.158225     90.316450
     -4.535050     41.462066     41.462066     82.924132
     -4.506438     39.814633     39.814633     79.629265
     -4.477825     39.291963     39.291963     78.583926
     -4.449213     39.293166     39.293166     78.586332
     -4.420601     39.830681     39.830681     79.661361
     -4.391989     41.302107     41.302107     82.604215
     -4.363376     44.163712     44.163712     88.327425
     -4.334764     48.870143     48.870143     97.740285
     -4.306152     55.886852     55.886852    111.773704
     -4.277539     65.368626     65.368626    130.737252
     -4.248927     76.593351     76.593351    153.186703
     -4.220315     87.779324     87.779324    175.558648
     -4.191702     96.691271     96.691271    193.382542
     -4.163090    101.651469    101.651469    203.302937
     -4.134478    102.189080    102.189080    204.378160
     -4.105866     98.991030     98.991030    197.982059
     -4.077253     93.416632     93.416632    186.833264
     -4.048641     86.942886     86.942886    173.885772
     -4.020029     80.694112     80.694112    161.388225
     -3.991416     75.154184     75.154184    150.308369
     -3.962804     70.219635     70.219635    140.439270
     -3.934192     65.591153     65.591153    131.182307
     -3.905579     61.189220     61.189220    122.378439
     -3.876967     57.243935     57.243935    114.487870
     -3.848355     54.058263     54.058263    108.116525
     -3.819742     51.767283     51.767283    103.534565
     -3.791130     50.337653     50.337653    100.675305
     -3.762518     49.707225     49.707225     99.414450
     -3.733906     49.802630     49.802630     99.605260
     -3.705293     50.390066     50.390066    100.780133
     -3.676681     51.003347     51.003347    102.006695
     -3.648069     51.128287     51.128287    102.256573
     -3.619456     50.475583     50.475583    100.951166
     -3.590844     49.053005     49.053005     98.106010
     -3.562232     47.026051     47.026051     94.052102
     -3.533619     44.609246     44.609246     89.218493
     -3.505007     42.127712     42.127712     84.255423
     -3.476395     40.132576     40.132576     80.265152
     -3.447783     39.340963     39.340963     78.681927
     -3.419170     40.271363     40.271363     80.542727
     -3.390558     42.751129     42.751129     85.502258
     -3.361946     45.791939     45.791939     91.583877
     -3.333333     48.180334     48.180334     96.360669
     -3.304721     49.410849     49.410849     98.821699
     -3.276109     50.076368     50.076368    100.152735
     -3.247496     51.282511     51.282511    102.565022
     -3.218884     53.638359     53.638359    107.276719
     -3.190272     56.744482     56.744482    113.488963
     -3.161660     59.497994     59.497994    118.995987
     -3.133047     60.774730     60.774730    121.549460
     -3.104435     59.945454     59.945454    119.890907
     -3.075823     57.093832     57.093832    114.187664
     -3.047210     53.046392     53.046392    106.092783
     -3.018598     49.188091     49.188091     98.376183
     -2.989986     46.958631     46.958631     93.917262
     -2.961373     47.197484     47.197484     94.394969
     -2.932761     49.779479     49.779479     99.558958
     -2.904149     53.811418     53.811418    107.622836
     -2.875536     58.204691     58.204691    116.409382
     -2.846924     62.215019     62.215019    124.430038
     -2.818312     65.668949     65.668949    131.337899
     -2.789700     68.782411     68.782411    137.564823
     -2.761087     71.635889     71.635889    143.271779
     -2.732475     73.667333     73.667333    147.334667
     -2.703863     73.750483     73.750483    147.500966
     -2.675250     71.015376     71.015376    142.030753
     -2.646638     65.730843     65.730843    131.461686
     -2.618026     59.333001     59.333001    118.666003
     -2.589413     53.506420     53.506420    107.012839
     -2.560801     49.186599     49.186599     98.373199
     -2.532189     46.342028     46.342028     92.684057
     -2.503577     44.526447     44.526447     89.052895
     -2.474964     43.503815     43.503815     87.007631
     -2.446352     43.377730     43.377730     86.755460
     -2.417740     44.280924     44.280924     88.561849
     -2.389127     46.074726     46.074726     92.149451
     -2.360515     48.356990     48.356990     96.713979
     -2.331903     50.691982     50.691982    101.383965
     -2.303290     52.805236     52.805236    105.610473
     -2.274678     54.589610     54.589610    109.179220
     -2.246066     55.928311     55.928311    111.856621
     -2.217454     56.475093     56.475093    112.950186
     -2.188841     55.643765     55.643765    111.287530
     -2.160229     52.970142     52.970142    105.940283
     -2.131617     48.635871     48.635871     97.271742
     -2.103004     43.679200     43.679200     87.358401
     -2.074392     39.675992     39.675992     79.351983
     -2.045780     38.164566     38.164566     76.329132
     -2.017167     40.167278     40.167278     80.334555
     -1.988555     45.839764     45.839764     91.679527
     -1.959943     54.197439     54.197439    108.394879
     -1.931330     63.199625     63.199625    126.399250
     -1.902718     70.529162     70.529162    141.058325
     -1.874106     74.751655     74.751655    149.503311
     -1.845494     75.916115     75.916115    151.832230
     -1.816881     75.064306     75.064306    150.128612
     -1.788269     73.210486     73.210486    146.420971
     -1.759657     70.781225     70.781225    141.562451
     -1.731044     67.809543     67.809543    135.619086
     -1.702432     64.363567     64.363567    128.727133
     -1.673820     60.688736     60.688736    121.377471
     -1.645207     57.071901     57.071901    114.143803
     -1.616595     53.707459     53.707459    107.414919
     -1.587983     50.667899     50.667899    101.335798
     -1.559371     47.874656     47.874656     95.749312
     -1.530758     45.053697     45.053697     90.107394
     -1.502146     41.844134     41.844134     83.688269
     -1.473534     38.111049     38.111049     76.222099
     -1.444921     34.175559     34.175559     68.351119
     -1.416309     30.651300     30.651300     61.302600
     -1.387697     28.007493     28.007493     56.014986
     -1.359084     26.297160     26.297160     52.594319
     -1.330472     25.258756     25.258756     50.517512
     -1.301860     24.564879     24.564879     49.129758
     -1.273247     23.929688     23.929688     47.859377
     -1.244635     23.087945     23.087945     46.175891
     -1.216023     21.834016     21.834016     43.668033
     -1.187411     20.139889     20.139889     40.279778
     -1.158798     18.174753     18.174753     36.349506
     -1.130186     16.147253     16.147253     32.294505
     -1.101574     14.135283     14.135283     28.270566
     -1.072961     12.099459     12.099459     24.198919
     -1.044349     10.057385     10.057385     20.114769
     -1.015737      8.210859      8.210859     16.421719
     -0.987124      6.866930      6.866930     13.733860
     -0.958512      6.204573      6.204573     12.409146
     -0.929900      6.105891      6.105891     12.211783
     -0.901288      6.231086      6.231086     12.462172
     -0.872675      6.282711      6.282711     12.565422
     -0.844063      6.203589      6.203589     12.407178
     -0.815451      6.117808      6.117808     12.235617
     -0.786838      6.098863      6.098863     12.197727
     -0.758226      6.023990      6.023990     12.047980
     -0.729614      5.662775      5.662775     11.325549
     -0.701001      4.898421      4.898421      9.796842
     -0.672389      3.863656      3.863656      7.727312
     -0.643777      2.876650      2.876650      5.753299
     -0.615165      2.243659      2.243659      4.487318
     -0.586552      2.080921      2.080921      4.161842
     -0.557940      2.263178      2.263178      4.526355
     -0.529328      2.511167      2.511167      5.022335
     -0.500715      2.556002      2.556002      5.112004
     -0.472103      2.281608      2.281608      4.563215
     -0.443491      1.761027      1.761027      3.522053
     -0.414878      1.177561      1.177561      2.355121
     -0.386266      0.706100      0.706100      1.412200
     -0.357654      0.442798      0.442798      0.885596
     -0.329041      0.405377      0.405377      0.810753
     -0.300429      0.560633      0.560633      1.121266
