# EIG2DOS: Utility for SIESTA to obtain the electronic density of states
#  E. Artacho, Apr 1999, A. Garcia, Apr 2012
# ------------------------------------------
# Eigenvalues read from 2mos2-2graphene.EIG
# Using smearing parameter:   0.100
# Using    700 points in energy range
# Selected bands: 1 to: 2612
# Emin, emax in file for selected band(s):    -22.9170500    153.5755500
# Nbands, Nspin, Nk   =   2612     1    13
# E_F                 =    -4.7876 eV --> (shifted to ZERO)
# Broadening          =     0.1000 eV
#
#        E            N(up)  (=)   N(down)         Ntot
    -10.000000      8.313336      8.313336     16.626673
     -9.971388      8.037895      8.037895     16.075790
     -9.942775      7.670359      7.670359     15.340718
     -9.914163      7.334361      7.334361     14.668721
     -9.885551      6.997297      6.997297     13.994595
     -9.856938      6.571981      6.571981     13.143962
     -9.828326      6.086913      6.086913     12.173826
     -9.799714      5.737695      5.737695     11.475390
     -9.771102      5.751592      5.751592     11.503183
     -9.742489      6.187743      6.187743     12.375485
     -9.713877      6.864555      6.864555     13.729110
     -9.685265      7.482098      7.482098     14.964197
     -9.656652      7.821834      7.821834     15.643669
     -9.628040      7.850763      7.850763     15.701527
     -9.599428      7.669215      7.669215     15.338431
     -9.570815      7.382560      7.382560     14.765120
     -9.542203      7.013638      7.013638     14.027277
     -9.513591      6.509116      6.509116     13.018232
     -9.484979      5.818454      5.818454     11.636908
     -9.456366      4.991682      4.991682      9.983365
     -9.427754      4.236277      4.236277      8.472554
     -9.399142      3.877172      3.877172      7.754344
     -9.370529      4.202789      4.202789      8.405579
     -9.341917      5.267229      5.267229     10.534458
     -9.313305      6.792972      6.792972     13.585945
     -9.284692      8.286925      8.286925     16.573851
     -9.256080      9.329281      9.329281     18.658562
     -9.227468      9.831143      9.831143     19.662285
     -9.198856     10.045879     10.045879     20.091757
     -9.170243     10.310257     10.310257     20.620514
     -9.141631     10.731353     10.731353     21.462707
     -9.113019     11.091357     11.091357     22.182713
     -9.084406     11.043229     11.043229     22.086459
     -9.055794     10.404233     10.404233     20.808467
     -9.027182      9.289052      9.289052     18.578104
     -8.998569      8.014188      8.014188     16.028376
     -8.969957      6.925157      6.925157     13.850315
     -8.941345      6.305985      6.305985     12.611969
     -8.912732      6.356603      6.356603     12.713207
     -8.884120      7.121100      7.121100     14.242200
     -8.855508      8.367279      8.367279     16.734558
     -8.826896      9.597915      9.597915     19.195830
     -8.798283     10.330836     10.330836     20.661672
     -8.769671     10.485662     10.485662     20.971323
     -8.741059     10.495578     10.495578     20.991157
     -8.712446     10.950286     10.950286     21.900572
     -8.683834     12.040496     12.040496     24.080992
     -8.655222     13.323844     13.323844     26.647687
     -8.626609     14.066333     14.066333     28.132666
     -8.597997     13.862592     13.862592     27.725184
     -8.569385     12.950868     12.950868     25.901735
     -8.540773     11.936872     11.936872     23.873744
     -8.512160     11.239824     11.239824     22.479649
     -8.483548     10.831671     10.831671     21.663343
     -8.454936     10.475500     10.475500     20.951000
     -8.426323     10.108743     10.108743     20.217486
     -8.397711      9.903786      9.903786     19.807572
     -8.369099      9.979152      9.979152     19.958303
     -8.340486     10.173989     10.173989     20.347977
     -8.311874     10.193477     10.193477     20.386954
     -8.283262      9.937564      9.937564     19.875129
     -8.254649      9.597611      9.597611     19.195222
     -8.226037      9.425667      9.425667     18.851334
     -8.197425      9.491293      9.491293     18.982586
     -8.168813      9.706574      9.706574     19.413149
     -8.140200     10.018369     10.018369     20.036738
     -8.111588     10.465826     10.465826     20.931651
     -8.082976     11.023092     11.023092     22.046183
     -8.054363     11.478155     11.478155     22.956310
     -8.025751     11.594611     11.594611     23.189222
     -7.997139     11.442965     11.442965     22.885930
     -7.968526     11.503736     11.503736     23.007473
     -7.939914     12.308663     12.308663     24.617325
     -7.911302     13.875243     13.875243     27.750487
     -7.882690     15.495706     15.495706     30.991412
     -7.854077     16.186093     16.186093     32.372186
     -7.825465     15.464624     15.464624     30.929249
     -7.796853     13.751293     13.751293     27.502586
     -7.768240     12.007373     12.007373     24.014746
     -7.739628     10.957424     10.957424     21.914848
     -7.711016     10.598397     10.598397     21.196794
     -7.682403     10.361160     10.361160     20.722320
     -7.653791      9.675561      9.675561     19.351122
     -7.625179      8.425948      8.425948     16.851896
     -7.596567      7.006255      7.006255     14.012510
     -7.567954      6.040213      6.040213     12.080426
     -7.539342      6.001492      6.001492     12.002984
     -7.510730      6.951586      6.951586     13.903171
     -7.482117      8.532212      8.532212     17.064425
     -7.453505     10.215731     10.215731     20.431462
     -7.424893     11.637037     11.637037     23.274073
     -7.396280     12.753374     12.753374     25.506748
     -7.367668     13.731002     13.731002     27.462004
     -7.339056     14.704157     14.704157     29.408315
     -7.310443     15.629472     15.629472     31.258945
     -7.281831     16.316756     16.316756     32.633512
     -7.253219     16.549212     16.549212     33.098423
     -7.224607     16.180718     16.180718     32.361436
     -7.195994     15.182451     15.182451     30.364902
     -7.167382     13.665747     13.665747     27.331495
     -7.138770     11.879823     11.879823     23.759645
     -7.110157     10.156226     10.156226     20.312453
     -7.081545      8.810872      8.810872     17.621744
     -7.052933      8.057624      8.057624     16.115247
     -7.024320      7.970502      7.970502     15.941003
     -6.995708      8.496958      8.496958     16.993916
     -6.967096      9.524556      9.524556     19.049112
     -6.938484     10.993635     10.993635     21.987270
     -6.909871     12.978795     12.978795     25.957590
     -6.881259     15.618429     15.618429     31.236859
     -6.852647     18.893040     18.893040     37.786080
     -6.824034     22.471100     22.471100     44.942200
     -6.795422     25.861142     25.861142     51.722283
     -6.766810     28.792634     28.792634     57.585269
     -6.738197     31.416282     31.416282     62.832564
     -6.709585     34.037772     34.037772     68.075544
     -6.680973     36.644282     36.644282     73.288564
     -6.652361     38.804796     38.804796     77.609592
     -6.623748     40.137716     40.137716     80.275431
     -6.595136     40.837943     40.837943     81.675886
     -6.566524     41.618275     41.618275     83.236550
     -6.537911     43.076511     43.076511     86.153023
     -6.509299     45.177150     45.177150     90.354300
     -6.480687     47.417034     47.417034     94.834068
     -6.452074     49.479019     49.479019     98.958037
     -6.423462     51.659645     51.659645    103.319290
     -6.394850     54.636932     54.636932    109.273865
     -6.366237     58.851388     58.851388    117.702777
     -6.337625     64.118732     64.118732    128.237463
     -6.309013     69.773380     69.773380    139.546759
     -6.280401     75.097157     75.097157    150.194315
     -6.251788     79.609432     79.609432    159.218863
     -6.223176     83.071809     83.071809    166.143618
     -6.194564     85.387203     85.387203    170.774407
     -6.165951     86.585831     86.585831    173.171662
     -6.137339     86.862776     86.862776    173.725552
     -6.108727     86.503552     86.503552    173.007104
     -6.080114     85.663816     85.663816    171.327632
     -6.051502     84.191523     84.191523    168.383046
     -6.022890     81.728347     81.728347    163.456694
     -5.994278     78.094004     78.094004    156.188009
     -5.965665     73.637982     73.637982    147.275964
     -5.937053     69.209537     69.209537    138.419075
     -5.908441     65.743410     65.743410    131.486821
     -5.879828     63.799634     63.799634    127.599267
     -5.851216     63.346101     63.346101    126.692203
     -5.822604     63.776844     63.776844    127.553689
     -5.793991     64.061011     64.061011    128.122022
     -5.765379     63.085356     63.085356    126.170712
     -5.736767     60.259789     60.259789    120.519578
     -5.708155     56.067353     56.067353    112.134706
     -5.679542     51.943849     51.943849    103.887698
     -5.650930     49.299879     49.299879     98.599757
     -5.622318     48.395969     48.395969     96.791937
     -5.593705     48.114829     48.114829     96.229658
     -5.565093     46.919450     46.919450     93.838900
     -5.536481     44.160686     44.160686     88.321372
     -5.507868     40.569591     40.569591     81.139183
     -5.479256     37.564356     37.564356     75.128711
     -5.450644     36.093401     36.093401     72.186801
     -5.422031     36.062901     36.062901     72.125803
     -5.393419     36.741001     36.741001     73.482003
     -5.364807     37.614474     37.614474     75.228948
     -5.336195     38.849046     38.849046     77.698093
     -5.307582     41.004103     41.004103     82.008206
     -5.278970     44.440127     44.440127     88.880254
     -5.250358     49.106721     49.106721     98.213442
     -5.221745     54.848284     54.848284    109.696569
     -5.193133     61.699913     61.699913    123.399826
     -5.164521     69.707492     69.707492    139.414983
     -5.135908     78.477421     78.477421    156.954843
     -5.107296     87.030138     87.030138    174.060275
     -5.078684     94.151890     94.151890    188.303779
     -5.050072     98.885839     98.885839    197.771679
     -5.021459    100.777012    100.777012    201.554023
     -4.992847     99.858289     99.858289    199.716578
     -4.964235     96.537506     96.537506    193.075012
     -4.935622     91.428701     91.428701    182.857403
     -4.907010     85.156619     85.156619    170.313238
     -4.878398     78.276732     78.276732    156.553465
     -4.849785     71.342462     71.342462    142.684924
     -4.821173     64.901559     64.901559    129.803117
     -4.792561     59.280049     59.280049    118.560098
     -4.763948     54.385525     54.385525    108.771049
     -4.735336     49.874853     49.874853     99.749706
     -4.706724     45.657005     45.657005     91.314009
     -4.678112     42.266278     42.266278     84.532556
     -4.649499     40.678155     40.678155     81.356310
     -4.620887     41.671645     41.671645     83.343289
     -4.592275     45.309515     45.309515     90.619030
     -4.563662     50.966912     50.966912    101.933824
     -4.535050     57.746090     57.746090    115.492180
     -4.506438     64.784024     64.784024    129.568049
     -4.477825     71.264395     71.264395    142.528789
     -4.449213     76.434722     76.434722    152.869444
     -4.420601     79.906287     79.906287    159.812574
     -4.391989     81.978152     81.978152    163.956304
     -4.363376     83.456755     83.456755    166.913510
     -4.334764     84.954318     84.954318    169.908636
     -4.306152     86.343674     86.343674    172.687347
     -4.277539     86.938876     86.938876    173.877751
     -4.248927     86.143912     86.143912    172.287825
     -4.220315     83.861888     83.861888    167.723777
     -4.191702     80.396351     80.396351    160.792703
     -4.163090     76.175688     76.175688    152.351377
     -4.134478     71.628017     71.628017    143.256033
     -4.105866     67.162382     67.162382    134.324764
     -4.077253     63.102664     63.102664    126.205328
     -4.048641     59.617237     59.617237    119.234473
     -4.020029     56.774869     56.774869    113.549738
     -3.991416     54.689552     54.689552    109.379103
     -3.962804     53.553166     53.553166    107.106331
     -3.934192     53.432778     53.432778    106.865557
     -3.905579     53.983365     53.983365    107.966730
     -3.876967     54.422420     54.422420    108.844839
     -3.848355     53.941580     53.941580    107.883160
     -3.819742     52.266210     52.266210    104.532421
     -3.791130     49.848038     49.848038     99.696075
     -3.762518     47.520889     47.520889     95.041779
     -3.733906     45.950638     45.950638     91.901275
     -3.705293     45.289418     45.289418     90.578836
     -3.676681     45.166908     45.166908     90.333815
     -3.648069     44.945028     44.945028     89.890056
     -3.619456     44.116231     44.116231     88.232462
     -3.590844     42.667031     42.667031     85.334063
     -3.562232     41.173246     41.173246     82.346491
     -3.533619     40.507914     40.507914     81.015827
     -3.505007     41.321789     41.321789     82.643577
     -3.476395     43.667776     43.667776     87.335552
     -3.447783     47.046315     47.046315     94.092630
     -3.419170     50.777245     50.777245    101.554490
     -3.390558     54.326763     54.326763    108.653526
     -3.361946     57.361854     57.361854    114.723707
     -3.333333     59.669693     59.669693    119.339386
     -3.304721     61.176963     61.176963    122.353926
     -3.276109     62.058805     62.058805    124.117610
     -3.247496     62.733680     62.733680    125.467360
     -3.218884     63.644949     63.644949    127.289899
     -3.190272     64.963521     64.963521    129.927042
     -3.161660     66.447498     66.447498    132.894997
     -3.133047     67.590972     67.590972    135.181943
     -3.104435     67.976961     67.976961    135.953921
     -3.075823     67.573582     67.573582    135.147164
     -3.047210     66.712365     66.712365    133.424729
     -3.018598     65.710277     65.710277    131.420555
     -2.989986     64.444093     64.444093    128.888186
     -2.961373     62.363902     62.363902    124.727804
     -2.932761     59.119133     59.119133    118.238265
     -2.904149     55.286038     55.286038    110.572075
     -2.875536     52.352530     52.352530    104.705060
     -2.846924     51.711728     51.711728    103.423457
     -2.818312     53.472400     53.472400    106.944799
     -2.789700     56.230858     56.230858    112.461715
     -2.761087     58.084243     58.084243    116.168485
     -2.732475     57.993627     57.993627    115.987255
     -2.703863     56.348400     56.348400    112.696800
     -2.675250     54.391025     54.391025    108.782049
     -2.646638     53.123534     53.123534    106.247068
     -2.618026     52.604695     52.604695    105.209390
     -2.589413     52.106119     52.106119    104.212237
     -2.560801     50.889199     50.889199    101.778398
     -2.532189     48.906443     48.906443     97.812887
     -2.503577     46.838985     46.838985     93.677970
     -2.474964     45.477085     45.477085     90.954170
     -2.446352     45.023584     45.023584     90.047167
     -2.417740     44.934544     44.934544     89.869088
     -2.389127     44.402728     44.402728     88.805455
     -2.360515     43.044787     43.044787     86.089575
     -2.331903     41.258483     41.258483     82.516965
     -2.303290     40.063688     40.063688     80.127375
     -2.274678     40.605118     40.605118     81.210236
     -2.246066     43.578077     43.578077     87.156154
     -2.217454     48.796663     48.796663     97.593327
     -2.188841     55.167203     55.167203    110.334406
     -2.160229     61.238664     61.238664    122.477328
     -2.131617     66.029076     66.029076    132.058152
     -2.103004     69.417316     69.417316    138.834632
     -2.074392     71.740494     71.740494    143.480989
     -2.045780     73.099728     73.099728    146.199456
     -2.017167     73.164040     73.164040    146.328081
     -1.988555     71.593442     71.593442    143.186885
     -1.959943     68.491340     68.491340    136.982679
     -1.931330     64.413164     64.413164    128.826329
     -1.902718     60.066877     60.066877    120.133754
     -1.874106     56.073350     56.073350    112.146700
     -1.845494     52.874315     52.874315    105.748629
     -1.816881     50.669856     50.669856    101.339712
     -1.788269     49.417563     49.417563     98.835126
     -1.759657     49.012590     49.012590     98.025180
     -1.731044     49.481905     49.481905     98.963811
     -1.702432     50.823425     50.823425    101.646850
     -1.673820     52.519419     52.519419    105.038838
     -1.645207     53.328766     53.328766    106.657532
     -1.616595     51.834053     51.834053    103.668105
     -1.587983     47.405669     47.405669     94.811337
     -1.559371     40.729527     40.729527     81.459053
     -1.530758     33.436292     33.436292     66.872583
     -1.502146     27.172234     27.172234     54.344467
     -1.473534     22.826932     22.826932     45.653864
     -1.444921     20.360123     20.360123     40.720245
     -1.416309     19.146936     19.146936     38.293871
     -1.387697     18.450549     18.450549     36.901098
     -1.359084     17.710120     17.710120     35.420239
     -1.330472     16.625111     16.625111     33.250221
     -1.301860     15.174389     15.174389     30.348779
     -1.273247     13.603938     13.603938     27.207877
     -1.244635     12.302808     12.302808     24.605616
     -1.216023     11.582002     11.582002     23.164003
     -1.187411     11.515517     11.515517     23.031034
     -1.158798     11.950747     11.950747     23.901493
     -1.130186     12.619408     12.619408     25.238816
     -1.101574     13.225212     13.225212     26.450424
     -1.072961     13.482810     13.482810     26.965619
     -1.044349     13.160021     13.160021     26.320041
     -1.015737     12.145936     12.145936     24.291872
     -0.987124     10.507849     10.507849     21.015698
     -0.958512      8.487502      8.487502     16.975004
     -0.929900      6.425026      6.425026     12.850052
     -0.901288      4.650673      4.650673      9.301345
     -0.872675      3.398681      3.398681      6.797361
     -0.844063      2.760351      2.760351      5.520701
     -0.815451      2.664434      2.664434      5.328868
     -0.786838      2.897157      2.897157      5.794314
     -0.758226      3.193194      3.193194      6.386388
     -0.729614      3.372442      3.372442      6.744884
     -0.701001      3.421784      3.421784      6.843569
     -0.672389      3.445592      3.445592      6.891183
     -0.643777      3.528975      3.528975      7.057949
     -0.615165      3.638173      3.638173      7.276346
     -0.586552      3.641678      3.641678      7.283357
     -0.557940      3.428597      3.428597      6.857194
     -0.529328      3.020683      3.020683      6.041366
     -0.500715      2.577191      2.577191      5.154382
     -0.472103      2.282380      2.282380      4.564760
     -0.443491      2.212131      2.212131      4.424262
     -0.414878      2.290533      2.290533      4.581065
     -0.386266      2.356342      2.356342      4.712683
     -0.357654      2.269270      2.269270      4.538541
     -0.329041      1.980475      1.980475      3.960950
     -0.300429      1.541338      1.541338      3.082677
