# EIG2DOS: Utility for SIESTA to obtain the electronic density of states
#  E. Artacho, Apr 1999, A. Garcia, Apr 2012
# ------------------------------------------
# Eigenvalues read from 2mos2-2graphene.EIG
# Using smearing parameter:   0.100
# Using    700 points in energy range
# Selected bands: 1 to: 2612
# Emin, emax in file for selected band(s):    -22.9217300    153.5665200
# Nbands, Nspin, Nk   =   2612     1    13
# E_F                 =    -4.7878 eV --> (shifted to ZERO)
# Broadening          =     0.1000 eV
#
#        E            N(up)  (=)   N(down)         Ntot
    -10.000000      8.512678      8.512678     17.025356
     -9.971388      8.145957      8.145957     16.291914
     -9.942775      7.690138      7.690138     15.380276
     -9.914163      7.241524      7.241524     14.483048
     -9.885551      6.765615      6.765615     13.531230
     -9.856938      6.225466      6.225466     12.450931
     -9.828326      5.719249      5.719249     11.438497
     -9.799714      5.469949      5.469949     10.939898
     -9.771102      5.659932      5.659932     11.319864
     -9.742489      6.262803      6.262803     12.525606
     -9.713877      7.035647      7.035647     14.071294
     -9.685265      7.680350      7.680350     15.360700
     -9.656652      8.022811      8.022811     16.045621
     -9.628040      8.061685      8.061685     16.123370
     -9.599428      7.882937      7.882937     15.765874
     -9.570815      7.549870      7.549870     15.099739
     -9.542203      7.059922      7.059922     14.119844
     -9.513591      6.377374      6.377374     12.754747
     -9.484979      5.506139      5.506139     11.012277
     -9.456366      4.563143      4.563143      9.126286
     -9.427754      3.805840      3.805840      7.611680
     -9.399142      3.565455      3.565455      7.130909
     -9.370529      4.084364      4.084364      8.168728
     -9.341917      5.342257      5.342257     10.684515
     -9.313305      7.005824      7.005824     14.011647
     -9.284692      8.580965      8.580965     17.161930
     -9.256080      9.694538      9.694538     19.389077
     -9.227468     10.299215     10.299215     20.598430
     -9.198856     10.626346     10.626346     21.252692
     -9.170243     10.921291     10.921291     21.842582
     -9.141631     11.198148     11.198148     22.396295
     -9.113019     11.234533     11.234533     22.469065
     -9.084406     10.795138     10.795138     21.590276
     -9.055794      9.858945      9.858945     19.717889
     -9.027182      8.647799      8.647799     17.295598
     -8.998569      7.476171      7.476171     14.952342
     -8.969957      6.607618      6.607618     13.215236
     -8.941345      6.231741      6.231741     12.463482
     -8.912732      6.479761      6.479761     12.959521
     -8.884120      7.348610      7.348610     14.697219
     -8.855508      8.580032      8.580032     17.160065
     -8.826896      9.703823      9.703823     19.407646
     -8.798283     10.338542     10.338542     20.677084
     -8.769671     10.524801     10.524801     21.049603
     -8.741059     10.727787     10.727787     21.455574
     -8.712446     11.420817     11.420817     22.841634
     -8.683834     12.603463     12.603463     25.206926
     -8.655222     13.730589     13.730589     27.461179
     -8.626609     14.157099     14.157099     28.314198
     -8.597997     13.689644     13.689644     27.379289
     -8.569385     12.715094     12.715094     25.430189
     -8.540773     11.800582     11.800582     23.601165
     -8.512160     11.199308     11.199308     22.398617
     -8.483548     10.764420     10.764420     21.528840
     -8.454936     10.293320     10.293320     20.586639
     -8.426323      9.846370      9.846370     19.692740
     -8.397711      9.661031      9.661031     19.322062
     -8.369099      9.808275      9.808275     19.616550
     -8.340486     10.055106     10.055106     20.110213
     -8.311874     10.111794     10.111794     20.223588
     -8.283262      9.940769      9.940769     19.881538
     -8.254649      9.746180      9.746180     19.492361
     -8.226037      9.698020      9.698020     19.396040
     -8.197425      9.768392      9.768392     19.536784
     -8.168813      9.860470      9.860470     19.720941
     -8.140200     10.003256     10.003256     20.006513
     -8.111588     10.319334     10.319334     20.638668
     -8.082976     10.806523     10.806523     21.613045
     -8.054363     11.250114     11.250114     22.500227
     -8.025751     11.442615     11.442615     22.885230
     -7.997139     11.498019     11.498019     22.996038
     -7.968526     11.868860     11.868860     23.737720
     -7.939914     12.939494     12.939494     25.878989
     -7.911302     14.537920     14.537920     29.075840
     -7.882690     15.888266     15.888266     31.776532
     -7.854077     16.156808     16.156808     32.313615
     -7.825465     15.137081     15.137081     30.274162
     -7.796853     13.422149     13.422149     26.844298
     -7.768240     11.892629     11.892629     23.785259
     -7.739628     11.015710     11.015710     22.031420
     -7.711016     10.587590     10.587590     21.175180
     -7.682403     10.061621     10.061621     20.123241
     -7.653791      9.072309      9.072309     18.144618
     -7.625179      7.711377      7.711377     15.422754
     -7.596567      6.439389      6.439389     12.878777
     -7.567954      5.792093      5.792093     11.584185
     -7.539342      6.080765      6.080765     12.161531
     -7.510730      7.230051      7.230051     14.460102
     -7.482117      8.843131      8.843131     17.686263
     -7.453505     10.465997     10.465997     20.931995
     -7.424893     11.857562     11.857562     23.715123
     -7.396280     13.049390     13.049390     26.098779
     -7.367668     14.176660     14.176660     28.353320
     -7.339056     15.272426     15.272426     30.544851
     -7.310443     16.206862     16.206862     32.413724
     -7.281831     16.771651     16.771651     33.543301
     -7.253219     16.789569     16.789569     33.579138
     -7.224607     16.172041     16.172041     32.344082
     -7.195994     14.941595     14.941595     29.883190
     -7.167382     13.249342     13.249342     26.498684
     -7.138770     11.366601     11.366601     22.733203
     -7.110157      9.621725      9.621725     19.243450
     -7.081545      8.307395      8.307395     16.614790
     -7.052933      7.613021      7.613021     15.226043
     -7.024320      7.602400      7.602400     15.204800
     -6.995708      8.226301      8.226301     16.452602
     -6.967096      9.377416      9.377416     18.754833
     -6.938484     10.991729     10.991729     21.983457
     -6.909871     13.120545     13.120545     26.241090
     -6.881259     15.854347     15.854347     31.708694
     -6.852647     19.117389     19.117389     38.234778
     -6.824034     22.558646     22.558646     45.117293
     -6.795422     25.736701     25.736701     51.473402
     -6.766810     28.470853     28.470853     56.941707
     -6.738197     30.970230     30.970230     61.940460
     -6.709585     33.534846     33.534846     67.069692
     -6.680973     36.117225     36.117225     72.234450
     -6.652361     38.265019     38.265019     76.530038
     -6.623748     39.584627     39.584627     79.169254
     -6.595136     40.250041     40.250041     80.500082
     -6.566524     40.964158     40.964158     81.928316
     -6.537911     42.357669     42.357669     84.715338
     -6.509299     44.445421     44.445421     88.890842
     -6.480687     46.719441     46.719441     93.438881
     -6.452074     48.779530     48.779530     97.559060
     -6.423462     50.837885     50.837885    101.675769
     -6.394850     53.585710     53.585710    107.171420
     -6.366237     57.580335     57.580335    115.160670
     -6.337625     62.766221     62.766221    125.532442
     -6.309013     68.535143     68.535143    137.070286
     -6.280401     74.152815     74.152815    148.305630
     -6.251788     79.085595     79.085595    158.171191
     -6.223176     83.016475     83.016475    166.032950
     -6.194564     85.748914     85.748914    171.497827
     -6.165951     87.236319     87.236319    174.472638
     -6.137339     87.670085     87.670085    175.340169
     -6.108727     87.395796     87.395796    174.791591
     -6.080114     86.635963     86.635963    173.271926
     -6.051502     85.278560     85.278560    170.557120
     -6.022890     82.982797     82.982797    165.965595
     -5.994278     79.560511     79.560511    159.121023
     -5.965665     75.309195     75.309195    150.618390
     -5.937053     70.987478     70.987478    141.974957
     -5.908441     67.439764     67.439764    134.879527
     -5.879828     65.174029     65.174029    130.348058
     -5.851216     64.170869     64.170869    128.341738
     -5.822604     63.934788     63.934788    127.869577
     -5.793991     63.652881     63.652881    127.305762
     -5.765379     62.452278     62.452278    124.904555
     -5.736767     59.842231     59.842231    119.684462
     -5.708155     56.165755     56.165755    112.331510
     -5.679542     52.556166     52.556166    105.112333
     -5.650930     50.149169     50.149169    100.298337
     -5.622318     49.108700     49.108700     98.217400
     -5.593705     48.426740     48.426740     96.853479
     -5.565093     46.798007     46.798007     93.596014
     -5.536481     43.786908     43.786908     87.573815
     -5.507868     40.199305     40.199305     80.398610
     -5.479256     37.366208     37.366208     74.732416
     -5.450644     36.069428     36.069428     72.138857
     -5.422031     36.080568     36.080568     72.161136
     -5.393419     36.623183     36.623183     73.246367
     -5.364807     37.214984     37.214984     74.429967
     -5.336195     38.074705     38.074705     76.149410
     -5.307582     39.791959     39.791959     79.583917
     -5.278970     42.734105     42.734105     85.468211
     -5.250358     46.876138     46.876138     93.752275
     -5.221745     52.149492     52.149492    104.298985
     -5.193133     58.740825     58.740825    117.481650
     -5.164521     66.860155     66.860155    133.720310
     -5.135908     76.193376     76.193376    152.386752
     -5.107296     85.663049     85.663049    171.326098
     -5.078684     93.787598     93.787598    187.575195
     -5.050072     99.327039     99.327039    198.654077
     -5.021459    101.716920    101.716920    203.433840
     -4.992847    101.087495    101.087495    202.174990
     -4.964235     97.993923     97.993923    195.987846
     -4.935622     93.079551     93.079551    186.159102
     -4.907010     86.872014     86.872014    173.744027
     -4.878398     79.828251     79.828251    159.656502
     -4.849785     72.515533     72.515533    145.031065
     -4.821173     65.623168     65.623168    131.246336
     -4.792561     59.673457     59.673457    119.346914
     -4.763948     54.713420     54.713420    109.426840
     -4.735336     50.396444     50.396444    100.792887
     -4.706724     46.488020     46.488020     92.976040
     -4.678112     43.329764     43.329764     86.659528
     -4.649499     41.743285     41.743285     83.486571
     -4.620887     42.403501     42.403501     84.807002
     -4.592275     45.302945     45.302945     90.605889
     -4.563662     49.836637     49.836637     99.673273
     -4.535050     55.323912     55.323912    110.647824
     -4.506438     61.327002     61.327002    122.654003
     -4.477825     67.483550     67.483550    134.967101
     -4.449213     73.242503     73.242503    146.485006
     -4.420601     77.995917     77.995917    155.991834
     -4.391989     81.510971     81.510971    163.021943
     -4.363376     84.082017     84.082017    168.164035
     -4.334764     86.125047     86.125047    172.250094
     -4.306152     87.655484     87.655484    175.310968
     -4.277539     88.250939     88.250939    176.501877
     -4.248927     87.484690     87.484690    174.969379
     -4.220315     85.282457     85.282457    170.564914
     -4.191702     81.881699     81.881699    163.763397
     -4.163090     77.617611     77.617611    155.235223
     -4.134478     72.844830     72.844830    145.689660
     -4.105866     67.966039     67.966039    135.932078
     -4.077253     63.387635     63.387635    126.775271
     -4.048641     59.420587     59.420587    118.841174
     -4.020029     56.281502     56.281502    112.563005
     -3.991416     54.185427     54.185427    108.370854
     -3.962804     53.324965     53.324965    106.649929
     -3.934192     53.631296     53.631296    107.262592
     -3.905579     54.537853     54.537853    109.075707
     -3.876967     55.105894     55.105894    110.211787
     -3.848355     54.558827     54.558827    109.117655
     -3.819742     52.793639     52.793639    105.587278
     -3.791130     50.387687     50.387687    100.775373
     -3.762518     48.118975     48.118975     96.237950
     -3.733906     46.468286     46.468286     92.936571
     -3.705293     45.465255     45.465255     90.930510
     -3.676681     44.832691     44.832691     89.665383
     -3.648069     44.203881     44.203881     88.407762
     -3.619456     43.302955     43.302955     86.605909
     -3.590844     42.097180     42.097180     84.194360
     -3.562232     40.900986     40.900986     81.801972
     -3.533619     40.328028     40.328028     80.656057
     -3.505007     41.011543     41.011543     82.023086
     -3.476395     43.208823     43.208823     86.417645
     -3.447783     46.597459     46.597459     93.194918
     -3.419170     50.465322     50.465322    100.930645
     -3.390558     54.125636     54.125636    108.251273
     -3.361946     57.188715     57.188715    114.377429
     -3.333333     59.539438     59.539438    119.078876
     -3.304721     61.196719     61.196719    122.393438
     -3.276109     62.265451     62.265451    124.530901
     -3.247496     62.969453     62.969453    125.938907
     -3.218884     63.611194     63.611194    127.222388
     -3.190272     64.405696     64.405696    128.811391
     -3.161660     65.323496     65.323496    130.646992
     -3.133047     66.109274     66.109274    132.218547
     -3.104435     66.483498     66.483498    132.966995
     -3.075823     66.362489     66.362489    132.724977
     -3.047210     65.899767     65.899767    131.799534
     -3.018598     65.271085     65.271085    130.542170
     -2.989986     64.359258     64.359258    128.718517
     -2.961373     62.702708     62.702708    125.405416
     -2.932761     59.945702     59.945702    119.891405
     -2.904149     56.486064     56.486064    112.972128
     -2.875536     53.596651     53.596651    107.193301
     -2.846924     52.649858     52.649858    105.299717
     -2.818312     53.998314     53.998314    107.996628
     -2.789700     56.548672     56.548672    113.097344
     -2.761087     58.490489     58.490489    116.980978
     -2.732475     58.578877     58.578877    117.157754
     -2.703863     56.906399     56.906399    113.812798
     -2.675250     54.616070     54.616070    109.232139
     -2.646638     52.903351     52.903351    105.806703
     -2.618026     52.138829     52.138829    104.277658
     -2.589413     51.746434     51.746434    103.492867
     -2.560801     50.847482     50.847482    101.694964
     -2.532189     49.088491     49.088491     98.176982
     -2.503577     46.945464     46.945464     93.890927
     -2.474964     45.271052     45.271052     90.542104
     -2.446352     44.530777     44.530777     89.061553
     -2.417740     44.425241     44.425241     88.850483
     -2.389127     44.196141     44.196141     88.392281
     -2.360515     43.297260     43.297260     86.594521
     -2.331903     41.871380     41.871380     83.742759
     -2.303290     40.741663     40.741663     81.483326
     -2.274678     41.014433     41.014433     82.028865
     -2.246066     43.526161     43.526161     87.052323
     -2.217454     48.339523     48.339523     96.679047
     -2.188841     54.558742     54.558742    109.117484
     -2.160229     60.729858     60.729858    121.459716
     -2.131617     65.671966     65.671966    131.343931
     -2.103004     69.058438     69.058438    138.116876
     -2.074392     71.213764     71.213764    142.427529
     -2.045780     72.419694     72.419694    144.839388
     -2.017167     72.524235     72.524235    145.048470
     -1.988555     71.193244     71.193244    142.386488
     -1.959943     68.388744     68.388744    136.777488
     -1.931330     64.537331     64.537331    129.074662
     -1.902718     60.331853     60.331853    120.663707
     -1.874106     56.456737     56.456737    112.913474
     -1.845494     53.417357     53.417357    106.834714
     -1.816881     51.449900     51.449900    102.899800
     -1.788269     50.519135     50.519135    101.038269
     -1.759657     50.467596     50.467596    100.935191
     -1.731044     51.184942     51.184942    102.369884
     -1.702432     52.505296     52.505296    105.010593
     -1.673820     53.845723     53.845723    107.691446
     -1.645207     54.073154     54.073154    108.146308
     -1.616595     51.989943     51.989943    103.979887
     -1.587983     47.149315     47.149315     94.298629
     -1.559371     40.284094     40.284094     80.568187
     -1.530758     32.965288     32.965288     65.930576
     -1.502146     26.773552     26.773552     53.547103
     -1.473534     22.582206     22.582206     45.164412
     -1.444921     20.347726     20.347726     40.695452
     -1.416309     19.389573     19.389573     38.779147
     -1.387697     18.863290     18.863290     37.726580
     -1.359084     18.132663     18.132663     36.265325
     -1.330472     16.934088     16.934088     33.868176
     -1.301860     15.374361     15.374361     30.748723
     -1.273247     13.809333     13.809333     27.618666
     -1.244635     12.635324     12.635324     25.270648
     -1.216023     12.083400     12.083400     24.166800
     -1.187411     12.134138     12.134138     24.268276
     -1.158798     12.576316     12.576316     25.152632
     -1.130186     13.122298     13.122298     26.244596
     -1.101574     13.492626     13.492626     26.985252
     -1.072961     13.455763     13.455763     26.911526
     -1.044349     12.854620     12.854620     25.709239
     -1.015737     11.644085     11.644085     23.288170
     -0.987124      9.928462      9.928462     19.856925
     -0.958512      7.956584      7.956584     15.913169
     -0.929900      6.048825      6.048825     12.097650
     -0.901288      4.491431      4.491431      8.982863
     -0.872675      3.459234      3.459234      6.918467
     -0.844063      2.983633      2.983633      5.967266
     -0.815451      2.949771      2.949771      5.899541
     -0.786838      3.135596      3.135596      6.271193
     -0.758226      3.316051      3.316051      6.632102
     -0.729614      3.385440      3.385440      6.770880
     -0.701001      3.392469      3.392469      6.784938
     -0.672389      3.446101      3.446101      6.892202
     -0.643777      3.578124      3.578124      7.156248
     -0.615165      3.689600      3.689600      7.379199
     -0.586552      3.626354      3.626354      7.252708
     -0.557940      3.315777      3.315777      6.631555
     -0.529328      2.846592      2.846592      5.693184
     -0.500715      2.418711      2.418711      4.837421
     -0.472103      2.201062      2.201062      4.402125
     -0.443491      2.215638      2.215638      4.431277
     -0.414878      2.335621      2.335621      4.671242
     -0.386266      2.381232      2.381232      4.762464
     -0.357654      2.229334      2.229334      4.458669
     -0.329041      1.868823      1.868823      3.737646
     -0.300429      1.387416      1.387416      2.774831
