# EIG2DOS: Utility for SIESTA to obtain the electronic density of states
#  E. Artacho, Apr 1999, A. Garcia, Apr 2012
# ------------------------------------------
# Eigenvalues read from 2mos2-2graphene.EIG
# Using smearing parameter:   0.100
# Using    700 points in energy range
# Selected bands: 1 to: 2612
# Emin, emax in file for selected band(s):    -22.9282500    153.5556500
# Nbands, Nspin, Nk   =   2612     1    13
# E_F                 =    -4.7879 eV --> (shifted to ZERO)
# Broadening          =     0.1000 eV
#
#        E            N(up)  (=)   N(down)         Ntot
    -10.000000      8.662643      8.662643     17.325286
     -9.971388      8.179029      8.179029     16.358057
     -9.942775      7.608649      7.608649     15.217298
     -9.914163      7.019776      7.019776     14.039551
     -9.885551      6.398526      6.398526     12.797053
     -9.856938      5.781233      5.781233     11.562467
     -9.828326      5.332125      5.332125     10.664250
     -9.799714      5.268022      5.268022     10.536044
     -9.771102      5.686896      5.686896     11.373791
     -9.742489      6.461170      6.461170     12.922340
     -9.713877      7.303803      7.303803     14.607606
     -9.685265      7.948012      7.948012     15.896025
     -9.656652      8.275967      8.275967     16.551933
     -9.628040      8.304094      8.304094     16.608188
     -9.599428      8.085585      8.085585     16.171170
     -9.570815      7.642518      7.642518     15.285037
     -9.542203      6.967849      6.967849     13.935698
     -9.513591      6.068536      6.068536     12.137072
     -9.484979      5.019955      5.019955     10.039909
     -9.456366      4.010604      4.010604      8.021208
     -9.427754      3.337268      3.337268      6.674536
     -9.399142      3.312320      3.312320      6.624640
     -9.370529      4.103235      4.103235      8.206470
     -9.341917      5.598187      5.598187     11.196374
     -9.313305      7.410870      7.410870     14.821740
     -9.284692      9.062930      9.062930     18.125860
     -9.256080     10.240486     10.240486     20.480972
     -9.227468     10.928993     10.928993     21.857987
     -9.198856     11.311221     11.311221     22.622442
     -9.170243     11.526235     11.526235     23.052471
     -9.141631     11.521065     11.521065     23.042130
     -9.113019     11.129478     11.129478     22.258957
     -9.084406     10.280831     10.280831     20.561661
     -9.055794      9.119674      9.119674     18.239348
     -9.027182      7.928314      7.928314     15.856628
     -8.998569      6.960579      6.960579     13.921159
     -8.969957      6.368762      6.368762     12.737524
     -8.941345      6.254149      6.254149     12.508298
     -8.912732      6.694549      6.694549     13.389099
     -8.884120      7.644970      7.644970     15.289940
     -8.855508      8.827956      8.827956     17.655911
     -8.826896      9.826589      9.826589     19.653179
     -8.798283     10.391766     10.391766     20.783533
     -8.769671     10.682197     10.682197     21.364394
     -8.741059     11.140412     11.140412     22.280824
     -8.712446     12.055321     12.055321     24.110643
     -8.683834     13.221201     13.221201     26.442403
     -8.655222     14.056845     14.056845     28.113690
     -8.626609     14.100764     14.100764     28.201529
     -8.597997     13.406228     13.406228     26.812456
     -8.569385     12.450500     12.450500     24.901001
     -8.540773     11.670746     11.670746     23.341492
     -8.512160     11.121342     11.121342     22.242684
     -8.483548     10.591460     10.591460     21.182920
     -8.454936      9.991553      9.991553     19.983107
     -8.426323      9.521678      9.521678     19.043356
     -8.397711      9.428609      9.428609     18.857218
     -8.369099      9.680464      9.680464     19.360927
     -8.340486      9.979067      9.979067     19.958134
     -8.311874     10.083740     10.083740     20.167480
     -8.283262     10.029025     10.029025     20.058049
     -8.254649      9.988458      9.988458     19.976916
     -8.226037     10.011723     10.011723     20.023446
     -8.197425      9.996867      9.996867     19.993734
     -8.168813      9.903415      9.903415     19.806830
     -8.140200      9.880604      9.880604     19.761209
     -8.111588     10.115362     10.115362     20.230724
     -8.082976     10.591190     10.591190     21.182379
     -8.054363     11.080101     11.080101     22.160201
     -8.025751     11.415860     11.415860     22.831720
     -7.997139     11.750264     11.750264     23.500527
     -7.968526     12.463402     12.463402     24.926804
     -7.939914     13.740869     13.740869     27.481738
     -7.911302     15.223602     15.223602     30.447204
     -7.882690     16.148762     16.148762     32.297523
     -7.854077     15.936945     15.936945     31.873889
     -7.825465     14.686905     14.686905     29.373810
     -7.796853     13.082645     13.082645     26.165289
     -7.768240     11.802913     11.802913     23.605827
     -7.739628     11.013147     11.013147     22.026294
     -7.711016     10.380840     10.380840     20.761679
     -7.682403      9.496559      9.496559     18.993118
     -7.653791      8.254055      8.254055     16.508110
     -7.625179      6.916475      6.916475     13.832949
     -7.596567      5.933240      5.933240     11.866480
     -7.567954      5.691556      5.691556     11.383111
     -7.539342      6.321485      6.321485     12.642971
     -7.510730      7.632851      7.632851     15.265702
     -7.482117      9.239398      9.239398     18.478797
     -7.453505     10.805591     10.805591     21.611183
     -7.424893     12.218403     12.218403     24.436807
     -7.396280     13.541055     13.541055     27.082111
     -7.367668     14.825526     14.825526     29.651052
     -7.339056     15.986507     15.986507     31.973015
     -7.310443     16.832843     16.832843     33.665686
     -7.281831     17.175769     17.175769     34.351538
     -7.253219     16.899757     16.899757     33.799513
     -7.224607     15.979336     15.979336     31.958672
     -7.195994     14.489807     14.489807     28.979614
     -7.167382     12.622693     12.622693     25.245386
     -7.138770     10.666658     10.666658     21.333315
     -7.110157      8.937684      8.937684     17.875368
     -7.081545      7.699748      7.699748     15.399497
     -7.052933      7.120359      7.120359     14.240718
     -7.024320      7.257525      7.257525     14.515051
     -6.995708      8.062792      8.062792     16.125585
     -6.967096      9.424033      9.424033     18.848067
     -6.938484     11.258397     11.258397     22.516794
     -6.909871     13.569691     13.569691     27.139382
     -6.881259     16.365969     16.365969     32.731939
     -6.852647     19.497978     19.497978     38.995956
     -6.824034     22.632372     22.632372     45.264745
     -6.795422     25.459017     25.459017     50.918034
     -6.766810     27.942750     27.942750     55.885499
     -6.738197     30.328320     30.328320     60.656641
     -6.709585     32.845471     32.845471     65.690943
     -6.680973     35.391924     35.391924     70.783847
     -6.652361     37.540460     37.540460     75.080920
     -6.623748     38.922804     38.922804     77.845607
     -6.595136     39.646676     39.646676     79.293351
     -6.566524     40.310850     40.310850     80.621700
     -6.537911     41.545696     41.545696     83.091392
     -6.509299     43.495954     43.495954     86.991907
     -6.480687     45.765550     45.765550     91.531099
     -6.452074     47.907608     47.907608     95.815216
     -6.423462     49.979328     49.979328     99.958655
     -6.394850     52.586381     52.586381    105.172763
     -6.366237     56.357575     56.357575    112.715149
     -6.337625     61.384427     61.384427    122.768855
     -6.309013     67.162911     67.162911    134.325823
     -6.280401     72.987173     72.987173    145.974346
     -6.251788     78.297193     78.297193    156.594387
     -6.223176     82.702540     82.702540    165.405079
     -6.194564     85.902644     85.902644    171.805288
     -6.165951     87.773983     87.773983    175.547966
     -6.137339     88.502004     88.502004    177.004009
     -6.108727     88.467744     88.467744    176.935487
     -6.080114     87.917235     87.917235    175.834469
     -6.051502     86.752941     86.752941    173.505883
     -6.022890     84.666391     84.666391    169.332782
     -5.994278     81.487350     81.487350    162.974699
     -5.965665     77.454692     77.454692    154.909384
     -5.937053     73.202695     73.202695    146.405390
     -5.908441     69.468544     69.468544    138.937088
     -5.879828     66.723960     66.723960    133.447919
     -5.851216     64.984202     64.984202    129.968403
     -5.822604     63.881642     63.881642    127.763284
     -5.793991     62.867364     62.867364    125.734729
     -5.765379     61.400807     61.400807    122.801614
     -5.736767     59.165251     59.165251    118.330502
     -5.708155     56.320172     56.320172    112.640344
     -5.679542     53.519853     53.519853    107.039707
     -5.650930     51.439759     51.439759    102.879518
     -5.622318     50.110300     50.110300    100.220600
     -5.593705     48.773982     48.773982     97.547964
     -5.565093     46.545977     46.545977     93.091955
     -5.536481     43.280830     43.280830     86.561661
     -5.507868     39.784052     39.784052     79.568104
     -5.479256     37.168978     37.168978     74.337957
     -5.450644     35.991263     35.991263     71.982526
     -5.422031     35.947239     35.947239     71.894477
     -5.393419     36.332750     36.332750     72.665501
     -5.364807     36.753322     36.753322     73.506644
     -5.336195     37.410597     37.410597     74.821193
     -5.307582     38.785661     38.785661     77.571322
     -5.278970     41.172695     41.172695     82.345390
     -5.250358     44.604426     44.604426     89.208853
     -5.221745     49.175424     49.175424     98.350848
     -5.193133     55.263177     55.263177    110.526354
     -5.164521     63.261268     63.261268    126.522536
     -5.135908     73.002907     73.002907    146.005815
     -5.107296     83.421507     83.421507    166.843015
     -5.078684     92.814650     92.814650    185.629300
     -5.050072     99.567437     99.567437    199.134873
     -5.021459    102.825861    102.825861    205.651723
     -4.992847    102.681542    102.681542    205.363085
     -4.964235     99.829562     99.829562    199.659125
     -4.935622     95.036419     95.036419    190.072838
     -4.907010     88.835408     88.835408    177.670816
     -4.878398     81.623380     81.623380    163.246759
     -4.849785     73.948715     73.948715    147.897430
     -4.821173     66.588986     66.588986    133.177972
     -4.792561     60.248505     60.248505    120.497010
     -4.763948     55.158650     55.158650    110.317300
     -4.735336     51.041145     51.041145    102.082291
     -4.706724     47.555221     47.555221     95.110442
     -4.678112     44.805205     44.805205     89.610410
     -4.649499     43.344368     43.344368     86.688736
     -4.620887     43.635828     43.635828     87.271655
     -4.592275     45.578641     45.578641     91.157282
     -4.563662     48.649695     48.649695     97.299390
     -4.535050     52.464447     52.464447    104.928893
     -4.506438     57.063807     57.063807    114.127614
     -4.477825     62.601943     62.601943    125.203885
     -4.449213     68.839309     68.839309    137.678618
     -4.420601     75.052254     75.052254    150.104508
     -4.391989     80.462214     80.462214    160.924428
     -4.363376     84.690027     84.690027    169.380054
     -4.334764     87.749337     87.749337    175.498673
     -4.306152     89.677032     89.677032    179.354063
     -4.277539     90.312213     90.312213    180.624425
     -4.248927     89.459874     89.459874    178.919748
     -4.220315     87.140738     87.140738    174.281476
     -4.191702     83.591291     83.591291    167.182582
     -4.163090     79.104337     79.104337    158.208674
     -4.134478     73.988388     73.988388    147.976776
     -4.105866     68.647138     68.647138    137.294276
     -4.077253     63.567809     63.567809    127.135617
     -4.048641     59.192983     59.192983    118.385965
     -4.020029     55.859803     55.859803    111.719606
     -3.991416     53.842600     53.842600    107.685200
     -3.962804     53.290952     53.290952    106.581903
     -3.934192     53.974936     53.974936    107.949872
     -3.905579     55.125054     55.125054    110.250109
     -3.876967     55.714645     55.714645    111.429289
     -3.848355     55.075351     55.075351    110.150702
     -3.819742     53.294447     53.294447    106.588893
     -3.791130     51.014860     51.014860    102.029720
     -3.762518     48.873059     48.873059     97.746118
     -3.733906     47.123869     47.123869     94.247739
     -3.705293     45.695972     45.695972     91.391945
     -3.676681     44.455355     44.455355     88.910710
     -3.648069     43.351857     43.351857     86.703714
     -3.619456     42.370761     42.370761     84.741522
     -3.590844     41.464771     41.464771     82.929542
     -3.562232     40.653539     40.653539     81.307078
     -3.533619     40.230441     40.230441     80.460883
     -3.505007     40.767034     40.767034     81.534069
     -3.476395     42.733876     42.733876     85.467752
     -3.447783     46.033550     46.033550     92.067101
     -3.419170     49.965196     49.965196     99.930392
     -3.390558     53.710183     53.710183    107.420367
     -3.361946     56.835364     56.835364    113.670728
     -3.333333     59.329728     59.329728    118.659456
     -3.304721     61.281508     61.281508    122.563016
     -3.276109     62.669325     62.669325    125.338650
     -3.247496     63.464989     63.464989    126.929978
     -3.218884     63.800918     63.800918    127.601836
     -3.190272     63.936995     63.936995    127.873990
     -3.161660     64.081468     64.081468    128.162936
     -3.133047     64.283887     64.283887    128.567775
     -3.104435     64.479218     64.479218    128.958437
     -3.075823     64.594833     64.594833    129.189667
     -3.047210     64.609151     64.609151    129.218302
     -3.018598     64.494128     64.494128    128.988256
     -2.989986     64.065993     64.065993    128.131985
     -2.961373     62.939296     62.939296    125.878592
     -2.932761     60.807055     60.807055    121.614109
     -2.904149     57.927606     57.927606    115.855212
     -2.875536     55.299603     55.299603    110.599206
     -2.846924     54.143017     54.143017    108.286034
     -2.818312     54.979002     54.979002    109.958003
     -2.789700     57.097860     57.097860    114.195721
     -2.761087     58.945071     58.945071    117.890142
     -2.732475     59.171360     59.171360    118.342720
     -2.703863     57.528029     57.528029    115.056058
     -2.675250     54.930188     54.930188    109.860376
     -2.646638     52.686518     52.686518    105.373036
     -2.618026     51.521818     51.521818    103.043637
     -2.589413     51.135121     51.135121    102.270241
     -2.560801     50.595743     50.595743    101.191486
     -2.532189     49.212699     49.212699     98.425397
     -2.503577     47.130041     47.130041     94.260081
     -2.474964     45.154234     45.154234     90.308468
     -2.446352     44.019386     44.019386     88.038771
     -2.417740     43.781715     43.781715     87.563429
     -2.389127     43.848842     43.848842     87.697683
     -2.360515     43.540850     43.540850     87.081701
     -2.331903     42.675787     42.675787     85.351575
     -2.303290     41.772625     41.772625     83.545249
     -2.274678     41.817124     41.817124     83.634249
     -2.246066     43.755341     43.755341     87.510682
     -2.217454     47.927581     47.927581     95.855162
     -2.188841     53.732329     53.732329    107.464658
     -2.160229     59.838740     59.838740    119.677480
     -2.131617     64.932726     64.932726    129.865453
     -2.103004     68.432637     68.432637    136.865274
     -2.074392     70.540783     70.540783    141.081566
     -2.045780     71.655838     71.655838    143.311675
     -2.017167     71.821302     71.821302    143.642604
     -1.988555     70.748152     70.748152    141.496303
     -1.959943     68.262442     68.262442    136.524883
     -1.931330     64.645448     64.645448    129.290895
     -1.902718     60.580531     60.580531    121.161063
     -1.874106     56.848030     56.848030    113.696061
     -1.845494     54.038154     54.038154    108.076307
     -1.816881     52.413204     52.413204    104.826407
     -1.788269     51.925368     51.925368    103.850735
     -1.759657     52.346494     52.346494    104.692988
     -1.731044     53.384312     53.384312    106.768624
     -1.702432     54.631707     54.631707    109.263414
     -1.673820     55.400571     55.400571    110.801142
     -1.645207     54.740981     54.740981    109.481961
     -1.616595     51.834081     51.834081    103.668163
     -1.587983     46.529573     46.529573     93.059146
     -1.559371     39.587744     39.587744     79.175489
     -1.530758     32.410515     32.410515     64.821030
     -1.502146     26.420978     26.420978     52.841955
     -1.473534     22.453804     22.453804     44.907609
     -1.444921     20.478634     20.478634     40.957268
     -1.416309     19.767768     19.767768     39.535536
     -1.387697     19.365521     19.365521     38.731043
     -1.359084     18.572923     18.572923     37.145846
     -1.330472     17.203729     17.203729     34.407459
     -1.301860     15.532952     15.532952     31.065905
     -1.273247     14.030129     14.030129     28.060259
     -1.244635     13.064704     13.064704     26.129409
     -1.216023     12.746275     12.746275     25.492550
     -1.187411     12.936934     12.936934     25.873868
     -1.158798     13.358635     13.358635     26.717269
     -1.130186     13.708575     13.708575     27.417150
     -1.101574     13.743492     13.743492     27.486983
     -1.072961     13.318014     13.318014     26.636028
     -1.044349     12.380442     12.380442     24.760883
     -1.015737     10.964284     10.964284     21.928568
     -0.987124      9.203996      9.203996     18.407993
     -0.958512      7.338261      7.338261     14.676522
     -0.929900      5.650394      5.650394     11.300788
     -0.901288      4.368678      4.368678      8.737356
     -0.872675      3.595037      3.595037      7.190074
     -0.844063      3.288005      3.288005      6.576010
     -0.815451      3.286666      3.286666      6.573332
     -0.786838      3.379489      3.379489      6.758978
     -0.758226      3.414523      3.414523      6.829046
     -0.729614      3.381246      3.381246      6.762493
     -0.701001      3.378968      3.378968      6.757936
     -0.672389      3.486965      3.486965      6.973929
     -0.643777      3.656439      3.656439      7.312877
     -0.615165      3.726452      3.726452      7.452905
     -0.586552      3.551117      3.551117      7.102235
     -0.557940      3.129338      3.129338      6.258675
     -0.529328      2.625736      2.625736      5.251472
     -0.500715      2.260382      2.260382      4.520764
     -0.472103      2.155347      2.155347      4.310694
     -0.443491      2.258939      2.258939      4.517878
     -0.414878      2.394718      2.394718      4.789437
     -0.386266      2.381594      2.381594      4.763189
     -0.357654      2.135076      2.135076      4.270151
     -0.329041      1.695711      1.695711      3.391422
     -0.300429      1.187365      1.187365      2.374731
