# EIG2DOS: Utility for SIESTA to obtain the electronic density of states
#  E. Artacho, Apr 1999, A. Garcia, Apr 2012
# ------------------------------------------
# Eigenvalues read from 2mos2-2graphene.EIG
# Using smearing parameter:   0.100
# Using    700 points in energy range
# Selected bands: 1 to: 2612
# Emin, emax in file for selected band(s):    -23.1201200    153.3407800
# Nbands, Nspin, Nk   =   2612     1    13
# E_F                 =    -4.9063 eV --> (shifted to ZERO)
# Broadening          =     0.1000 eV
#
#        E            N(up)  (=)   N(down)         Ntot
    -10.000000      5.133687      5.133687     10.267374
     -9.971388      4.040804      4.040804      8.081608
     -9.942775      3.654646      3.654646      7.309292
     -9.914163      3.921324      3.921324      7.842647
     -9.885551      4.664270      4.664270      9.328540
     -9.856938      5.722494      5.722494     11.444987
     -9.828326      6.989292      6.989292     13.978584
     -9.799714      8.342805      8.342805     16.685609
     -9.771102      9.565218      9.565218     19.130435
     -9.742489     10.349608     10.349608     20.699217
     -9.713877     10.408165     10.408165     20.816330
     -9.685265      9.612504      9.612504     19.225009
     -9.656652      8.075473      8.075473     16.150946
     -9.628040      6.122109      6.122109     12.244219
     -9.599428      4.165166      4.165166      8.330332
     -9.570815      2.559904      2.559904      5.119807
     -9.542203      1.526112      1.526112      3.052223
     -9.513591      1.176621      1.176621      2.353242
     -9.484979      1.606956      1.606956      3.213912
     -9.456366      2.940557      2.940557      5.881114
     -9.427754      5.245302      5.245302     10.490604
     -9.399142      8.347161      8.347161     16.694322
     -9.370529     11.693621     11.693621     23.387243
     -9.341917     14.440457     14.440457     28.880914
     -9.313305     15.788554     15.788554     31.577108
     -9.284692     15.383309     15.383309     30.766618
     -9.256080     13.505381     13.505381     27.010763
     -9.227468     10.919961     10.919961     21.839921
     -9.198856      8.493595      8.493595     16.987191
     -9.170243      6.826899      6.826899     13.653798
     -9.141631      6.092478      6.092478     12.184955
     -9.113019      6.093813      6.093813     12.187626
     -9.084406      6.439085      6.439085     12.878171
     -9.055794      6.737262      6.737262     13.474525
     -9.027182      6.787208      6.787208     13.574415
     -8.998569      6.712028      6.712028     13.424056
     -8.969957      6.921686      6.921686     13.843372
     -8.941345      7.838998      7.838998     15.677997
     -8.912732      9.535463      9.535463     19.070926
     -8.884120     11.578205     11.578205     23.156410
     -8.855508     13.266959     13.266959     26.533918
     -8.826896     14.107371     14.107371     28.214742
     -8.798283     14.136770     14.136770     28.273541
     -8.769671     13.826455     13.826455     27.652909
     -8.741059     13.647473     13.647473     27.294946
     -8.712446     13.680336     13.680336     27.360672
     -8.683834     13.603433     13.603433     27.206867
     -8.655222     13.041520     13.041520     26.083041
     -8.626609     11.923490     11.923490     23.846980
     -8.597997     10.523255     10.523255     21.046511
     -8.569385      9.213672      9.213672     18.427345
     -8.540773      8.245868      8.245868     16.491736
     -8.512160      7.754671      7.754671     15.509343
     -8.483548      7.860936      7.860936     15.721871
     -8.454936      8.636713      8.636713     17.273426
     -8.426323      9.935990      9.935990     19.871980
     -8.397711     11.324649     11.324649     22.649297
     -8.369099     12.253726     12.253726     24.507451
     -8.340486     12.343816     12.343816     24.687633
     -8.311874     11.548137     11.548137     23.096273
     -8.283262     10.129306     10.129306     20.258612
     -8.254649      8.561270      8.561270     17.122539
     -8.226037      7.436271      7.436271     14.872543
     -8.197425      7.321521      7.321521     14.643041
     -8.168813      8.507703      8.507703     17.015406
     -8.140200     10.757383     10.757383     21.514766
     -8.111588     13.294223     13.294223     26.588447
     -8.082976     15.174093     15.174093     30.348186
     -8.054363     15.865028     15.865028     31.730056
     -8.025751     15.599066     15.599066     31.198132
     -7.997139     15.153255     15.153255     30.306510
     -7.968526     15.180922     15.180922     30.361844
     -7.939914     15.643079     15.643079     31.286159
     -7.911302     15.833869     15.833869     31.667738
     -7.882690     14.971767     14.971767     29.943534
     -7.854077     12.842715     12.842715     25.685430
     -7.825465      9.982659      9.982659     19.965317
     -7.796853      7.316722      7.316722     14.633444
     -7.768240      5.589502      5.589502     11.179004
     -7.739628      4.995026      4.995026      9.990053
     -7.711016      5.195414      5.195414     10.390829
     -7.682403      5.651336      5.651336     11.302673
     -7.653791      6.027843      6.027843     12.055685
     -7.625179      6.413079      6.413079     12.826157
     -7.596567      7.207480      7.207480     14.414960
     -7.567954      8.773787      8.773787     17.547573
     -7.539342     11.121055     11.121055     22.242110
     -7.510730     13.855472     13.855472     27.710944
     -7.482117     16.397864     16.397864     32.795728
     -7.453505     18.267541     18.267541     36.535082
     -7.424893     19.235627     19.235627     38.471253
     -7.396280     19.305015     19.305015     38.610029
     -7.367668     18.603340     18.603340     37.206680
     -7.339056     17.287229     17.287229     34.574458
     -7.310443     15.496376     15.496376     30.992752
     -7.281831     13.349190     13.349190     26.698380
     -7.253219     10.966989     10.966989     21.933979
     -7.224607      8.519889      8.519889     17.039777
     -7.195994      6.272409      6.272409     12.544819
     -7.167382      4.587125      4.587125      9.174249
     -7.138770      3.857099      3.857099      7.714198
     -7.110157      4.376873      4.376873      8.753746
     -7.081545      6.196423      6.196423     12.392846
     -7.052933      9.032050      9.032050     18.064101
     -7.024320     12.321710     12.321710     24.643421
     -6.995708     15.445645     15.445645     30.891290
     -6.967096     17.983915     17.983915     35.967831
     -6.938484     19.810212     19.810212     39.620424
     -6.909871     20.965988     20.965988     41.931976
     -6.881259     21.490264     21.490264     42.980527
     -6.852647     21.413349     21.413349     42.826699
     -6.824034     20.898024     20.898024     41.796048
     -6.795422     20.299194     20.299194     40.598387
     -6.766810     19.980792     19.980792     39.961584
     -6.738197     20.015511     20.015511     40.031023
     -6.709585     20.074982     20.074982     40.149965
     -6.680973     19.669958     19.669958     39.339916
     -6.652361     18.561305     18.561305     37.122609
     -6.623748     17.002909     17.002909     34.005818
     -6.595136     15.657560     15.657560     31.315121
     -6.566524     15.299571     15.299571     30.599143
     -6.537911     16.493592     16.493592     32.987185
     -6.509299     19.368247     19.368247     38.736495
     -6.480687     23.569183     23.569183     47.138367
     -6.452074     28.433010     28.433010     56.866019
     -6.423462     33.269077     33.269077     66.538154
     -6.394850     37.538537     37.538537     75.077074
     -6.366237     40.877359     40.877359     81.754718
     -6.337625     43.121111     43.121111     86.242223
     -6.309013     44.409143     44.409143     88.818287
     -6.280401     45.200578     45.200578     90.401155
     -6.251788     46.072137     46.072137     92.144274
     -6.223176     47.480366     47.480366     94.960733
     -6.194564     49.748663     49.748663     99.497325
     -6.165951     53.215659     53.215659    106.431318
     -6.137339     58.231855     58.231855    116.463711
     -6.108727     64.887138     64.887138    129.774276
     -6.080114     72.717781     72.717781    145.435562
     -6.051502     80.709441     80.709441    161.418882
     -6.022890     87.642454     87.642454    175.284908
     -5.994278     92.550437     92.550437    185.100874
     -5.965665     95.037685     95.037685    190.075369
     -5.937053     95.356030     95.356030    190.712061
     -5.908441     94.245801     94.245801    188.491601
     -5.879828     92.565067     92.565067    185.130135
     -5.851216     90.846580     90.846580    181.693160
     -5.822604     89.090708     89.090708    178.181415
     -5.793991     86.995726     86.995726    173.991452
     -5.765379     84.410514     84.410514    168.821029
     -5.736767     81.548241     81.548241    163.096483
     -5.708155     78.761882     78.761882    157.523764
     -5.679542     76.142109     76.142109    152.284218
     -5.650930     73.335200     73.335200    146.670399
     -5.622318     69.742869     69.742869    139.485738
     -5.593705     64.980362     64.980362    129.960724
     -5.565093     59.302277     59.302277    118.604554
     -5.536481     53.661572     53.661572    107.323144
     -5.507868     49.258581     49.258581     98.517162
     -5.479256     46.862609     46.862609     93.725217
     -5.450644     46.439255     46.439255     92.878511
     -5.422031     47.319668     47.319668     94.639336
     -5.393419     48.606078     48.606078     97.212156
     -5.364807     49.402981     49.402981     98.805961
     -5.336195     48.891901     48.891901     97.783801
     -5.307582     46.556174     46.556174     93.112348
     -5.278970     42.563807     42.563807     85.127614
     -5.250358     37.899041     37.899041     75.798081
     -5.221745     33.949310     33.949310     67.898620
     -5.193133     31.776166     31.776166     63.552332
     -5.164521     31.595917     31.595917     63.191834
     -5.135908     32.807183     32.807183     65.614366
     -5.107296     34.480876     34.480876     68.961751
     -5.078684     35.923028     35.923028     71.846055
     -5.050072     36.938850     36.938850     73.877699
     -5.021459     37.737039     37.737039     75.474077
     -4.992847     38.709630     38.709630     77.419261
     -4.964235     40.310137     40.310137     80.620273
     -4.935622     43.028525     43.028525     86.057049
     -4.907010     47.351885     47.351885     94.703770
     -4.878398     53.671853     53.671853    107.343706
     -4.849785     62.155096     62.155096    124.310191
     -4.821173     72.572960     72.572960    145.145920
     -4.792561     84.128878     84.128878    168.257756
     -4.763948     95.426725     95.426725    190.853451
     -4.735336    104.700110    104.700110    209.400219
     -4.706724    110.246001    110.246001    220.492002
     -4.678112    110.897789    110.897789    221.795578
     -4.649499    106.408402    106.408402    212.816803
     -4.620887     97.617625     97.617625    195.235251
     -4.592275     86.251219     86.251219    172.502438
     -4.563662     74.367830     74.367830    148.735659
     -4.535050     63.748569     63.748569    127.497139
     -4.506438     55.536938     55.536938    111.073876
     -4.477825     50.172847     50.172847    100.345693
     -4.449213     47.491365     47.491365     94.982729
     -4.420601     46.884885     46.884885     93.769770
     -4.391989     47.473343     47.473343     94.946687
     -4.363376     48.263959     48.263959     96.527918
     -4.334764     48.371606     48.371606     96.743213
     -4.306152     47.373882     47.373882     94.747764
     -4.277539     45.669430     45.669430     91.338860
     -4.248927     44.504611     44.504611     89.009222
     -4.220315     45.467327     45.467327     90.934654
     -4.191702     49.696859     49.696859     99.393719
     -4.163090     57.347651     57.347651    114.695303
     -4.134478     67.592053     67.592053    135.184106
     -4.105866     78.949683     78.949683    157.899365
     -4.077253     89.623986     89.623986    179.247972
     -4.048641     97.843931     97.843931    195.687862
     -4.020029    102.331910    102.331910    204.663821
     -3.991416    102.708201    102.708201    205.416403
     -3.962804     99.464605     99.464605    198.929209
     -3.934192     93.517274     93.517274    187.034549
     -3.905579     85.804444     85.804444    171.608887
     -3.876967     77.263025     77.263025    154.526050
     -3.848355     68.967960     68.967960    137.935920
     -3.819742     62.007971     62.007971    124.015942
     -3.791130     57.065722     57.065722    114.131443
     -3.762518     54.112059     54.112059    108.224118
     -3.733906     52.546290     52.546290    105.092579
     -3.705293     51.666282     51.666282    103.332564
     -3.676681     51.077695     51.077695    102.155390
     -3.648069     50.764285     50.764285    101.528571
     -3.619456     50.833710     50.833710    101.667421
     -3.590844     51.184871     51.184871    102.369743
     -3.562232     51.395510     51.395510    102.791021
     -3.533619     50.956158     50.956158    101.912317
     -3.505007     49.673858     49.673858     99.347715
     -3.476395     47.893027     47.893027     95.786054
     -3.447783     46.314228     46.314228     92.628457
     -3.419170     45.526306     45.526306     91.052611
     -3.390558     45.605962     45.605962     91.211924
     -3.361946     46.083163     46.083163     92.166327
     -3.333333     46.284105     46.284105     92.568211
     -3.304721     45.787680     45.787680     91.575360
     -3.276109     44.675658     44.675658     89.351316
     -3.247496     43.439185     43.439185     86.878370
     -3.218884     42.660557     42.660557     85.321114
     -3.190272     42.724395     42.724395     85.448791
     -3.161660     43.741294     43.741294     87.482588
     -3.133047     45.651920     45.651920     91.303839
     -3.104435     48.306816     48.306816     96.613632
     -3.075823     51.385679     51.385679    102.771358
     -3.047210     54.293082     54.293082    108.586164
     -3.018598     56.295577     56.295577    112.591154
     -2.989986     56.904314     56.904314    113.808628
     -2.961373     56.162116     56.162116    112.324232
     -2.932761     54.560073     54.560073    109.120146
     -2.904149     52.715084     52.715084    105.430168
     -2.875536     51.141369     51.141369    102.282738
     -2.846924     50.252062     50.252062    100.504124
     -2.818312     50.461355     50.461355    100.922709
     -2.789700     52.181705     52.181705    104.363410
     -2.761087     55.604822     55.604822    111.209645
     -2.732475     60.379815     60.379815    120.759630
     -2.703863     65.524097     65.524097    131.048195
     -2.675250     69.791177     69.791177    139.582353
     -2.646638     72.248556     72.248556    144.497112
     -2.618026     72.565309     72.565309    145.130619
     -2.589413     70.869290     70.869290    141.738579
     -2.560801     67.513527     67.513527    135.027054
     -2.532189     63.023753     63.023753    126.047506
     -2.503577     58.097196     58.097196    116.194391
     -2.474964     53.463933     53.463933    106.927866
     -2.446352     49.714056     49.714056     99.428112
     -2.417740     47.273979     47.273979     94.547959
     -2.389127     46.459723     46.459723     92.919446
     -2.360515     47.390137     47.390137     94.780273
     -2.331903     49.749513     49.749513     99.499026
     -2.303290     52.675885     52.675885    105.351771
     -2.274678     55.047880     55.047880    110.095759
     -2.246066     56.080392     56.080392    112.160784
     -2.217454     55.753841     55.753841    111.507683
     -2.188841     54.667679     54.667679    109.335358
     -2.160229     53.445001     53.445001    106.890002
     -2.131617     52.232336     52.232336    104.464672
     -2.103004     50.680920     50.680920    101.361841
     -2.074392     48.330281     48.330281     96.660562
     -2.045780     45.059412     45.059412     90.118825
     -2.017167     41.324668     41.324668     82.649337
     -1.988555     38.079318     38.079318     76.158636
     -1.959943     36.460757     36.460757     72.921513
     -1.931330     37.447889     37.447889     74.895777
     -1.902718     41.620017     41.620017     83.240035
     -1.874106     48.972724     48.972724     97.945448
     -1.845494     58.707064     58.707064    117.414128
     -1.816881     69.090502     69.090502    138.181005
     -1.788269     77.695840     77.695840    155.391681
     -1.759657     82.227174     82.227174    164.454348
     -1.731044     81.623084     81.623084    163.246169
     -1.702432     76.645542     76.645542    153.291085
     -1.673820     69.410868     69.410868    138.821735
     -1.645207     62.217931     62.217931    124.435862
     -1.616595     56.592515     56.592515    113.185031
     -1.587983     53.073727     53.073727    106.147454
     -1.559371     51.494899     51.494899    102.989797
     -1.530758     51.262968     51.262968    102.525936
     -1.502146     51.491088     51.491088    102.982177
     -1.473534     51.179112     51.179112    102.358223
     -1.444921     49.570268     49.570268     99.140536
     -1.416309     46.511623     46.511623     93.023246
     -1.387697     42.514813     42.514813     85.029627
     -1.359084     38.431699     38.431699     76.863398
     -1.330472     34.992413     34.992413     69.984826
     -1.301860     32.524393     32.524393     65.048786
     -1.273247     30.939563     30.939563     61.879125
     -1.244635     29.861626     29.861626     59.723251
     -1.216023     28.777254     28.777254     57.554508
     -1.187411     27.201893     27.201893     54.403787
     -1.158798     24.858362     24.858362     49.716725
     -1.130186     21.799104     21.799104     43.598208
     -1.101574     18.397009     18.397009     36.794018
     -1.072961     15.199289     15.199289     30.398578
     -1.044349     12.702962     12.702962     25.405923
     -1.015737     11.143016     11.143016     22.286033
     -0.987124     10.392817     10.392817     20.785634
     -0.958512     10.038285     10.038285     20.076570
     -0.929900      9.605282      9.605282     19.210564
     -0.901288      8.832845      8.832845     17.665689
     -0.872675      7.827499      7.827499     15.654997
     -0.844063      6.967258      6.967258     13.934516
     -0.815451      6.596039      6.596039     13.192077
     -0.786838      6.741199      6.741199     13.482399
     -0.758226      7.082937      7.082937     14.165874
     -0.729614      7.183684      7.183684     14.367367
     -0.701001      6.775486      6.775486     13.550973
     -0.672389      5.896776      5.896776     11.793551
     -0.643777      4.824601      4.824601      9.649202
     -0.615165      3.890654      3.890654      7.781307
     -0.586552      3.302604      3.302604      6.605208
     -0.557940      3.053636      3.053636      6.107272
     -0.529328      2.954835      2.954835      5.909670
     -0.500715      2.770080      2.770080      5.540160
     -0.472103      2.368266      2.368266      4.736531
     -0.443491      1.788204      1.788204      3.576408
     -0.414878      1.182154      1.182154      2.364309
     -0.386266      0.705044      0.705044      1.410088
     -0.357654      0.442723      0.442723      0.885446
     -0.329041      0.408319      0.408319      0.816639
     -0.300429      0.566466      0.566466      1.132933
