# EIG2DOS: Utility for SIESTA to obtain the electronic density of states
#  E. Artacho, Apr 1999, A. Garcia, Apr 2012
# ------------------------------------------
# Eigenvalues read from 2mos2-2graphene.EIG
# Using smearing parameter:   0.100
# Using    700 points in energy range
# Selected bands: 1 to: 2612
# Emin, emax in file for selected band(s):    -23.0920800    153.3662500
# Nbands, Nspin, Nk   =   2612     1    13
# E_F                 =    -4.8790 eV --> (shifted to ZERO)
# Broadening          =     0.1000 eV
#
#        E            N(up)  (=)   N(down)         Ntot
    -10.000000      5.079185      5.079185     10.158371
     -9.971388      3.969074      3.969074      7.938148
     -9.942775      3.591830      3.591830      7.183661
     -9.914163      3.877267      3.877267      7.754534
     -9.885551      4.632383      4.632383      9.264766
     -9.856938      5.694958      5.694958     11.389916
     -9.828326      6.971312      6.971312     13.942623
     -9.799714      8.350704      8.350704     16.701409
     -9.771102      9.611069      9.611069     19.222139
     -9.742489     10.428789     10.428789     20.857578
     -9.713877     10.500038     10.500038     21.000077
     -9.685265      9.690274      9.690274     19.380548
     -9.656652      8.117470      8.117470     16.234939
     -9.628040      6.120444      6.120444     12.240889
     -9.599428      4.127975      4.127975      8.255951
     -9.570815      2.503945      2.503945      5.007890
     -9.542203      1.463662      1.463662      2.927325
     -9.513591      1.107322      1.107322      2.214643
     -9.484979      1.522511      1.522511      3.045022
     -9.456366      2.840409      2.840409      5.680817
     -9.427754      5.151599      5.151599     10.303198
     -9.399142      8.303378      8.303378     16.606756
     -9.370529     11.740080     11.740080     23.480161
     -9.341917     14.581039     14.581039     29.162077
     -9.313305     15.977108     15.977108     31.954217
     -9.284692     15.545745     15.545745     31.091490
     -9.256080     13.582699     13.582699     27.165398
     -9.227468     10.899583     10.899583     21.799166
     -9.198856      8.408023      8.408023     16.816045
     -9.170243      6.726520      6.726520     13.453040
     -9.141631      6.017363      6.017363     12.034725
     -9.113019      6.062533      6.062533     12.125067
     -9.084406      6.450645      6.450645     12.901289
     -9.055794      6.772592      6.772592     13.545183
     -9.027182      6.810857      6.810857     13.621714
     -8.998569      6.687776      6.687776     13.375552
     -8.969957      6.841804      6.841804     13.683607
     -8.941345      7.741624      7.741624     15.483248
     -8.912732      9.484698      9.484698     18.969396
     -8.884120     11.614404     11.614404     23.228809
     -8.855508     13.368980     13.368980     26.737960
     -8.826896     14.205787     14.205787     28.411574
     -8.798283     14.171456     14.171456     28.342913
     -8.769671     13.796541     13.796541     27.593083
     -8.741059     13.606909     13.606909     27.213819
     -8.712446     13.684763     13.684763     27.369525
     -8.683834     13.660069     13.660069     27.320137
     -8.655222     13.108921     13.108921     26.217841
     -8.626609     11.956848     11.956848     23.913697
     -8.597997     10.513906     10.513906     21.027812
     -8.569385      9.182030      9.182030     18.364059
     -8.540773      8.205559      8.205559     16.411118
     -8.512160      7.698783      7.698783     15.397567
     -8.483548      7.786527      7.786527     15.573055
     -8.454936      8.569852      8.569852     17.139705
     -8.426323      9.918652      9.918652     19.837304
     -8.397711     11.375583     11.375583     22.751167
     -8.369099     12.349562     12.349562     24.699124
     -8.340486     12.440233     12.440233     24.880466
     -8.311874     11.611527     11.611527     23.223055
     -8.283262     10.144121     10.144121     20.288242
     -8.254649      8.518846      8.518846     17.037692
     -8.226037      7.334795      7.334795     14.669590
     -8.197425      7.183291      7.183291     14.366583
     -8.168813      8.387960      8.387960     16.775921
     -8.140200     10.720760     10.720760     21.441519
     -8.111588     13.366972     13.366972     26.733943
     -8.082976     15.311819     15.311819     30.623639
     -8.054363     15.974888     15.974888     31.949775
     -8.025751     15.610942     15.610942     31.221884
     -7.997139     15.081110     15.081110     30.162221
     -7.968526     15.113567     15.113567     30.227135
     -7.939914     15.666989     15.666989     31.333978
     -7.911302     15.957942     15.957942     31.915883
     -7.882690     15.122330     15.122330     30.244660
     -7.854077     12.927239     12.927239     25.854478
     -7.825465      9.958696      9.958696     19.917391
     -7.796853      7.210943      7.210943     14.421886
     -7.768240      5.467169      5.467169     10.934337
     -7.739628      4.914990      4.914990      9.829980
     -7.711016      5.178520      5.178520     10.357040
     -7.682403      5.673029      5.673029     11.346058
     -7.653791      6.037896      6.037896     12.075792
     -7.625179      6.373342      6.373342     12.746684
     -7.596567      7.121337      7.121337     14.242674
     -7.567954      8.682795      8.682795     17.365590
     -7.539342     11.072439     11.072439     22.144878
     -7.510730     13.870304     13.870304     27.740608
     -7.482117     16.464904     16.464904     32.929808
     -7.453505     18.359643     18.359643     36.719285
     -7.424893     19.327941     19.327941     38.655883
     -7.396280     19.382637     19.382637     38.765274
     -7.367668     18.661394     18.661394     37.322788
     -7.339056     17.328753     17.328753     34.657506
     -7.310443     15.528179     15.528179     31.056358
     -7.281831     13.375250     13.375250     26.750500
     -7.253219     10.982583     10.982583     21.965167
     -7.224607      8.511689      8.511689     17.023378
     -7.195994      6.226313      6.226313     12.452627
     -7.167382      4.498641      4.498641      8.997282
     -7.138770      3.737885      3.737885      7.475769
     -7.110157      4.256361      4.256361      8.512722
     -7.081545      6.117367      6.117367     12.234734
     -7.052933      9.033972      9.033972     18.067945
     -7.024320     12.415264     12.415264     24.830527
     -6.995708     15.600846     15.600846     31.201691
     -6.967096     18.151462     18.151462     36.302923
     -6.938484     19.958099     19.958099     39.916198
     -6.909871     21.090711     21.090711     42.181422
     -6.881259     21.592709     21.592709     43.185418
     -6.852647     21.477236     21.477236     42.954473
     -6.824034     20.905559     20.905559     41.811119
     -6.795422     20.265511     20.265511     40.531022
     -6.766810     19.958205     19.958205     39.916410
     -6.738197     20.054018     20.054018     40.108036
     -6.709585     20.183710     20.183710     40.367420
     -6.680973     19.833659     19.833659     39.667318
     -6.652361     18.813231     18.813231     37.626462
     -6.623748     17.496947     17.496947     34.993894
     -6.595136     16.675026     16.675026     33.350051
     -6.566524     17.165164     17.165164     34.330329
     -6.537911     19.425224     19.425224     38.850449
     -6.509299     23.334354     23.334354     46.668708
     -6.480687     28.252495     28.252495     56.504989
     -6.452074     33.345708     33.345708     66.691416
     -6.423462     37.945359     37.945359     75.890719
     -6.394850     41.675899     41.675899     83.351799
     -6.366237     44.374129     44.374129     88.748258
     -6.337625     46.052152     46.052152     92.104303
     -6.309013     46.982567     46.982567     93.965134
     -6.280401     47.697669     47.697669     95.395339
     -6.251788     48.773520     48.773520     97.547040
     -6.223176     50.599609     50.599609    101.199219
     -6.194564     53.393672     53.393672    106.787345
     -6.165951     57.399911     57.399911    114.799821
     -6.137339     62.948481     62.948481    125.896961
     -6.108727     70.200661     70.200661    140.401323
     -6.080114     78.779394     78.779394    157.558787
     -6.051502     87.644787     87.644787    175.289573
     -6.022890     95.352922     95.352922    190.705844
     -5.994278    100.533084    100.533084    201.066167
     -5.965665    102.356981    102.356981    204.713962
     -5.937053    100.859305    100.859305    201.718611
     -5.908441     96.975706     96.975706    193.951412
     -5.879828     92.186354     92.186354    184.372709
     -5.851216     87.863101     87.863101    175.726203
     -5.822604     84.668184     84.668184    169.336369
     -5.793991     82.375120     82.375120    164.750239
     -5.765379     80.225382     80.225382    160.450765
     -5.736767     77.554761     77.554761    155.109522
     -5.708155     74.203267     74.203267    148.406534
     -5.679542     70.414558     70.414558    140.829116
     -5.650930     66.420560     66.420560    132.841121
     -5.622318     62.201993     62.201993    124.403986
     -5.593705     57.692110     57.692110    115.384220
     -5.565093     53.183859     53.183859    106.367718
     -5.536481     49.434955     49.434955     98.869910
     -5.507868     47.231938     47.231938     94.463875
     -5.479256     46.746248     46.746248     93.492495
     -5.450644     47.300352     47.300352     94.600704
     -5.422031     47.796035     47.796035     95.592070
     -5.393419     47.403428     47.403428     94.806856
     -5.364807     45.902901     45.902901     91.805803
     -5.336195     43.514954     43.514954     87.029909
     -5.307582     40.576889     40.576889     81.153778
     -5.278970     37.440287     37.440287     74.880574
     -5.250358     34.562642     34.562642     69.125284
     -5.221745     32.507583     32.507583     65.015165
     -5.193133     31.728279     31.728279     63.456558
     -5.164521     32.308639     32.308639     64.617278
     -5.135908     33.903245     33.903245     67.806490
     -5.107296     35.935871     35.935871     71.871741
     -5.078684     37.916941     37.916941     75.833882
     -5.050072     39.681403     39.681403     79.362805
     -5.021459     41.439500     41.439500     82.879001
     -4.992847     43.673244     43.673244     87.346488
     -4.964235     46.970726     46.970726     93.941452
     -4.935622     51.857314     51.857314    103.714627
     -4.907010     58.656066     58.656066    117.312133
     -4.878398     67.404122     67.404122    134.808244
     -4.849785     77.795179     77.795179    155.590359
     -4.821173     89.067570     89.067570    178.135140
     -4.792561     99.868589     99.868589    199.737179
     -4.763948    108.330668    108.330668    216.661336
     -4.735336    112.571432    112.571432    225.142863
     -4.706724    111.459346    111.459346    222.918692
     -4.678112    105.137256    105.137256    210.274513
     -4.649499     94.916459     94.916459    189.832919
     -4.620887     82.675163     82.675163    165.350325
     -4.592275     70.258217     70.258217    140.516433
     -4.563662     59.198802     59.198802    118.397605
     -4.535050     50.640587     50.640587    101.281174
     -4.506438     45.200348     45.200348     90.400695
     -4.477825     42.791474     42.791474     85.582948
     -4.449213     42.665520     42.665520     85.331040
     -4.420601     43.760260     43.760260     87.520520
     -4.391989     45.114915     45.114915     90.229830
     -4.363376     46.096131     46.096131     92.192262
     -4.334764     46.472392     46.472392     92.944784
     -4.306152     46.523352     46.523352     93.046705
     -4.277539     47.147327     47.147327     94.294655
     -4.248927     49.682003     49.682003     99.364006
     -4.220315     55.302928     55.302928    110.605856
     -4.191702     64.292891     64.292891    128.585783
     -4.163090     75.667256     75.667256    151.334512
     -4.134478     87.383577     87.383577    174.767154
     -4.105866     97.005194     97.005194    194.010387
     -4.077253    102.561279    102.561279    205.122558
     -4.048641    103.305755    103.305755    206.611511
     -4.020029     99.962569     99.962569    199.925139
     -3.991416     94.171228     94.171228    188.342455
     -3.962804     87.445691     87.445691    174.891382
     -3.934192     80.484404     80.484404    160.968808
     -3.905579     73.378927     73.378927    146.757853
     -3.876967     66.349143     66.349143    132.698286
     -3.848355     60.113653     60.113653    120.227307
     -3.819742     55.492398     55.492398    110.984796
     -3.791130     52.743338     52.743338    105.486675
     -3.762518     51.394066     51.394066    102.788132
     -3.733906     50.715139     50.715139    101.430278
     -3.705293     50.298806     50.298806    100.597611
     -3.676681     50.195152     50.195152    100.390304
     -3.648069     50.569853     50.569853    101.139705
     -3.619456     51.272216     51.272216    102.544431
     -3.590844     51.727911     51.727911    103.455822
     -3.562232     51.272546     51.272546    102.545092
     -3.533619     49.651671     49.651671     99.303342
     -3.505007     47.250487     47.250487     94.500974
     -3.476395     44.864570     44.864570     89.729141
     -3.447783     43.232486     43.232486     86.464971
     -3.419170     42.695474     42.695474     85.390949
     -3.390558     43.147638     43.147638     86.295276
     -3.361946     44.179144     44.179144     88.358287
     -3.333333     45.255467     45.255467     90.510933
     -3.304721     45.900001     45.900001     91.800001
     -3.276109     45.922133     45.922133     91.844266
     -3.247496     45.606991     45.606991     91.213983
     -3.218884     45.642609     45.642609     91.285218
     -3.190272     46.708098     46.708098     93.416195
     -3.161660     48.996759     48.996759     97.993518
     -3.133047     52.054990     52.054990    104.109981
     -3.104435     55.019618     55.019618    110.039237
     -3.075823     57.016161     57.016161    114.032321
     -3.047210     57.488284     57.488284    114.976569
     -3.018598     56.397229     56.397229    112.794459
     -2.989986     54.253414     54.253414    108.506828
     -2.961373     51.906851     51.906851    103.813702
     -2.932761     50.166407     50.166407    100.332814
     -2.904149     49.511276     49.511276     99.022552
     -2.875536     50.085716     50.085716    100.171431
     -2.846924     51.881799     51.881799    103.763598
     -2.818312     54.864153     54.864153    109.728305
     -2.789700     58.904905     58.904905    117.809810
     -2.761087     63.609647     63.609647    127.219294
     -2.732475     68.243477     68.243477    136.486955
     -2.703863     71.895851     71.895851    143.791701
     -2.675250     73.781731     73.781731    147.563463
     -2.646638     73.449644     73.449644    146.899287
     -2.618026     70.842772     70.842772    141.685543
     -2.589413     66.336021     66.336021    132.672042
     -2.560801     60.738901     60.738901    121.477802
     -2.532189     55.094019     55.094019    110.188038
     -2.503577     50.294049     50.294049    100.588098
     -2.474964     46.824552     46.824552     93.649104
     -2.446352     44.833631     44.833631     89.667262
     -2.417740     44.351965     44.351965     88.703930
     -2.389127     45.352349     45.352349     90.704697
     -2.360515     47.586796     47.586796     95.173592
     -2.331903     50.442361     50.442361    100.884722
     -2.303290     53.082439     53.082439    106.164878
     -2.274678     54.854098     54.854098    109.708196
     -2.246066     55.620370     55.620370    111.240740
     -2.217454     55.683703     55.683703    111.367406
     -2.188841     55.346218     55.346218    110.692437
     -2.160229     54.516255     54.516255    109.032511
     -2.131617     52.738803     52.738803    105.477607
     -2.103004     49.640687     49.640687     99.281375
     -2.074392     45.410461     45.410461     90.820922
     -2.045780     40.915274     40.915274     81.830548
     -2.017167     37.402008     37.402008     74.804015
     -1.988555     36.074722     36.074722     72.149445
     -1.959943     37.814476     37.814476     75.628951
     -1.931330     43.007452     43.007452     86.014904
     -1.902718     51.322700     51.322700    102.645400
     -1.874106     61.502251     61.502251    123.004503
     -1.845494     71.462069     71.462069    142.924139
     -1.816881     78.892711     78.892711    157.785423
     -1.788269     82.150643     82.150643    164.301286
     -1.759657     80.922442     80.922442    161.844884
     -1.731044     76.236851     76.236851    152.473703
     -1.702432     69.850852     69.850852    139.701705
     -1.673820     63.456825     63.456825    126.913649
     -1.645207     58.175960     58.175960    116.351920
     -1.616595     54.465256     54.465256    108.930512
     -1.587983     52.261477     52.261477    104.522955
     -1.559371     51.157263     51.157263    102.314527
     -1.530758     50.531020     50.531020    101.062040
     -1.502146     49.650581     49.650581     99.301163
     -1.473534     47.826077     47.826077     95.652155
     -1.444921     44.678584     44.678584     89.357168
     -1.416309     40.423695     40.423695     80.847390
     -1.387697     35.879588     35.879588     71.759177
     -1.359084     32.047421     32.047421     64.094843
     -1.330472     29.542749     29.542749     59.085499
     -1.301860     28.330188     28.330188     56.660375
     -1.273247     27.877033     27.877033     55.754066
     -1.244635     27.470859     27.470859     54.941718
     -1.216023     26.483425     26.483425     52.966849
     -1.187411     24.573378     24.573378     49.146756
     -1.158798     21.819229     21.819229     43.638457
     -1.130186     18.671685     18.671685     37.343369
     -1.101574     15.699654     15.699654     31.399308
     -1.072961     13.300320     13.300320     26.600640
     -1.044349     11.570829     11.570829     23.141659
     -1.015737     10.372174     10.372174     20.744347
     -0.987124      9.475090      9.475090     18.950180
     -0.958512      8.684772      8.684772     17.369544
     -0.929900      7.911231      7.911231     15.822462
     -0.901288      7.185413      7.185413     14.370826
     -0.872675      6.623353      6.623353     13.246706
     -0.844063      6.349205      6.349205     12.698410
     -0.815451      6.403829      6.403829     12.807659
     -0.786838      6.677862      6.677862     13.355725
     -0.758226      6.914105      6.914105     13.828210
     -0.729614      6.808947      6.808947     13.617894
     -0.701001      6.183670      6.183670     12.367341
     -0.672389      5.118620      5.118620     10.237239
     -0.643777      3.934144      3.934144      7.868288
     -0.615165      3.008475      3.008475      6.016951
     -0.586552      2.555888      2.555888      5.111776
     -0.557940      2.517995      2.517995      5.035990
     -0.529328      2.630198      2.630198      5.260397
     -0.500715      2.603723      2.603723      5.207447
     -0.472103      2.295633      2.295633      4.591265
     -0.443491      1.760390      1.760390      3.520780
     -0.414878      1.172064      1.172064      2.344127
     -0.386266      0.701244      0.701244      1.402488
     -0.357654      0.441515      0.441515      0.883029
     -0.329041      0.408706      0.408706      0.817412
     -0.300429      0.567978      0.567978      1.135956
