# EIG2DOS: Utility for SIESTA to obtain the electronic density of states
#  E. Artacho, Apr 1999, A. Garcia, Apr 2012
# ------------------------------------------
# Eigenvalues read from 2mos2-2graphene.EIG
# Using smearing parameter:   0.100
# Using    700 points in energy range
# Selected bands: 1 to: 2612
# Emin, emax in file for selected band(s):    -23.0762300    153.3810400
# Nbands, Nspin, Nk   =   2612     1    13
# E_F                 =    -4.8627 eV --> (shifted to ZERO)
# Broadening          =     0.1000 eV
#
#        E            N(up)  (=)   N(down)         Ntot
    -10.000000      5.088547      5.088547     10.177094
     -9.971388      3.973634      3.973634      7.947268
     -9.942775      3.591401      3.591401      7.182802
     -9.914163      3.872995      3.872995      7.745991
     -9.885551      4.625604      4.625604      9.251209
     -9.856938      5.686537      5.686537     11.373075
     -9.828326      6.961940      6.961940     13.923881
     -9.799714      8.341604      8.341604     16.683209
     -9.771102      9.604224      9.604224     19.208447
     -9.742489     10.426369     10.426369     20.852738
     -9.713877     10.503432     10.503432     21.006865
     -9.685265      9.699335      9.699335     19.398669
     -9.656652      8.130405      8.130405     16.260810
     -9.628040      6.134452      6.134452     12.268904
     -9.599428      4.140300      4.140300      8.280600
     -9.570815      2.512714      2.512714      5.025428
     -9.542203      1.467961      1.467961      2.935921
     -9.513591      1.106559      1.106559      2.213118
     -9.484979      1.515786      1.515786      3.031572
     -9.456366      2.826722      2.826722      5.653445
     -9.427754      5.131167      5.131167     10.262334
     -9.399142      8.279172      8.279172     16.558344
     -9.370529     11.717982     11.717982     23.435964
     -9.341917     14.567680     14.567680     29.135361
     -9.313305     15.976458     15.976458     31.952916
     -9.284692     15.556873     15.556873     31.113745
     -9.256080     13.600412     13.600412     27.200823
     -9.227468     10.917336     10.917336     21.834673
     -9.198856      8.420973      8.420973     16.841947
     -9.170243      6.732961      6.732961     13.465922
     -9.141631      6.018369      6.018369     12.036739
     -9.113019      6.060779      6.060779     12.121557
     -9.084406      6.449128      6.449128     12.898257
     -9.055794      6.773266      6.773266     13.546532
     -9.027182      6.813274      6.813274     13.626549
     -8.998569      6.688817      6.688817     13.377635
     -8.969957      6.837464      6.837464     13.674928
     -8.941345      7.730103      7.730103     15.460205
     -8.912732      9.468408      9.468408     18.936816
     -8.884120     11.598947     11.598947     23.197893
     -8.855508     13.359526     13.359526     26.719052
     -8.826896     14.203645     14.203645     28.407291
     -8.798283     14.173656     14.173656     28.347311
     -8.769671     13.798773     13.798773     27.597546
     -8.741059     13.607251     13.607251     27.214503
     -8.712446     13.684920     13.684920     27.369840
     -8.683834     13.663183     13.663183     27.326366
     -8.655222     13.116311     13.116311     26.232623
     -8.626609     11.966949     11.966949     23.933898
     -8.597997     10.524028     10.524028     21.048056
     -8.569385      9.190377      9.190377     18.380754
     -8.540773      8.211212      8.211212     16.422424
     -8.512160      7.700492      7.700492     15.400984
     -8.483548      7.782760      7.782760     15.565520
     -8.454936      8.560566      8.560566     17.121131
     -8.426323      9.906639      9.906639     19.813277
     -8.397711     11.365537     11.365537     22.731075
     -8.369099     12.345558     12.345558     24.691115
     -8.340486     12.443807     12.443807     24.887614
     -8.311874     11.621404     11.621404     23.242808
     -8.283262     10.156861     10.156861     20.313722
     -8.254649      8.529613      8.529613     17.059226
     -8.226037      7.338547      7.338547     14.677095
     -8.197425      7.176856      7.176856     14.353712
     -8.168813      8.372258      8.372258     16.744516
     -8.140200     10.701357     10.701357     21.402714
     -8.111588     13.351610     13.351610     26.703220
     -8.082976     15.305760     15.305760     30.611519
     -8.054363     15.977315     15.977315     31.954630
     -8.025751     15.615745     15.615745     31.231490
     -7.997139     15.082026     15.082026     30.164051
     -7.968526     15.109568     15.109568     30.219136
     -7.939914     15.663192     15.663192     31.326384
     -7.911302     15.961259     15.961259     31.922519
     -7.882690     15.135768     15.135768     30.271535
     -7.854077     12.947576     12.947576     25.895152
     -7.825465      9.978878      9.978878     19.957756
     -7.796853      7.224687      7.224687     14.449374
     -7.768240      5.472314      5.472314     10.944628
     -7.739628      4.913829      4.913829      9.827657
     -7.711016      5.175432      5.175432     10.350865
     -7.682403      5.671116      5.671116     11.342233
     -7.653791      6.036781      6.036781     12.073563
     -7.625179      6.369670      6.369670     12.739341
     -7.596567      7.111601      7.111601     14.223203
     -7.567954      8.666263      8.666263     17.332527
     -7.539342     11.051938     11.051938     22.103876
     -7.510730     13.850517     13.850517     27.701035
     -7.482117     16.449856     16.449856     32.899711
     -7.453505     18.351267     18.351267     36.702533
     -7.424893     19.326245     19.326245     38.652489
     -7.396280     19.386648     19.386648     38.773296
     -7.367668     18.669974     18.669974     37.339949
     -7.339056     17.340959     17.340959     34.681919
     -7.310443     15.543267     15.543267     31.086535
     -7.281831     13.392448     13.392448     26.784896
     -7.253219     11.000725     11.000725     22.001450
     -7.224607      8.528915      8.528915     17.057830
     -7.195994      6.240184      6.240184     12.480369
     -7.167382      4.506900      4.506900      9.013800
     -7.138770      3.739785      3.739785      7.479571
     -7.110157      4.254217      4.254217      8.508435
     -7.081545      6.117466      6.117466     12.234931
     -7.052933      9.045291      9.045291     18.090582
     -7.024320     12.445175     12.445175     24.890350
     -6.995708     15.650031     15.650031     31.300062
     -6.967096     18.212653     18.212653     36.425305
     -6.938484     20.020482     20.020482     40.040964
     -6.909871     21.145613     21.145613     42.291227
     -6.881259     21.635088     21.635088     43.270176
     -6.852647     21.504195     21.504195     43.008389
     -6.824034     20.917690     20.917690     41.835380
     -6.795422     20.270906     20.270906     40.541812
     -6.766810     19.971892     19.971892     39.943785
     -6.738197     20.092013     20.092013     40.184027
     -6.709585     20.265090     20.265090     40.530179
     -6.680973     20.004287     20.004287     40.008574
     -6.652361     19.183121     19.183121     38.366243
     -6.623748     18.256669     18.256669     36.513338
     -6.595136     18.050212     18.050212     36.100423
     -6.566524     19.300202     19.300202     38.600403
     -6.537911     22.254564     22.254564     44.509128
     -6.509299     26.550797     26.550797     53.101595
     -6.480687     31.434772     31.434772     62.869543
     -6.452074     36.163883     36.163883     72.327765
     -6.423462     40.272403     40.272403     80.544806
     -6.394850     43.535944     43.535944     87.071888
     -6.366237     45.850001     45.850001     91.700002
     -6.337625     47.296952     47.296952     94.593905
     -6.309013     48.284335     48.284335     96.568671
     -6.280401     49.411616     49.411616     98.823232
     -6.251788     51.090198     51.090198    102.180396
     -6.223176     53.381243     53.381243    106.762486
     -6.194564     56.310584     56.310584    112.621168
     -6.165951     60.277951     60.277951    120.555901
     -6.137339     65.975729     65.975729    131.951458
     -6.108727     73.779679     73.779679    147.559358
     -6.080114     83.181912     83.181912    166.363824
     -6.051502     92.767128     92.767128    185.534255
     -6.022890    100.681654    100.681654    201.363308
     -5.994278    105.254709    105.254709    210.509418
     -5.965665    105.571751    105.571751    211.143501
     -5.937053    101.895079    101.895079    203.790158
     -5.908441     95.703942     95.703942    191.407884
     -5.879828     89.148470     89.148470    178.296940
     -5.851216     84.062649     84.062649    168.125298
     -5.822604     81.075717     81.075717    162.151434
     -5.793991     79.428936     79.428936    158.857873
     -5.765379     77.683777     77.683777    155.367554
     -5.736767     74.808369     74.808369    149.616737
     -5.708155     70.778074     70.778074    141.556149
     -5.679542     66.281244     66.281244    132.562488
     -5.650930     61.968212     61.968212    123.936423
     -5.622318     58.023259     58.023259    116.046518
     -5.593705     54.379271     54.379271    108.758542
     -5.565093     51.190086     51.190086    102.380172
     -5.536481     48.928758     48.928758     97.857517
     -5.507868     47.913616     47.913616     95.827232
     -5.479256     47.766547     47.766547     95.533093
     -5.450644     47.503962     47.503962     95.007923
     -5.422031     46.302386     46.302386     92.604771
     -5.393419     44.161374     44.161374     88.322748
     -5.364807     41.749937     41.749937     83.499874
     -5.336195     39.656806     39.656806     79.313612
     -5.307582     37.909053     37.909053     75.818107
     -5.278970     36.207222     36.207222     72.414444
     -5.250358     34.469593     34.469593     68.939186
     -5.221745     33.047112     33.047112     66.094224
     -5.193133     32.463844     32.463844     64.927687
     -5.164521     33.017184     33.017184     66.034368
     -5.135908     34.591613     34.591613     69.183225
     -5.107296     36.789471     36.789471     73.578941
     -5.078684     39.246484     39.246484     78.492969
     -5.050072     41.887661     41.887661     83.775323
     -5.021459     44.953585     44.953585     89.907169
     -4.992847     48.839982     48.839982     97.679964
     -4.964235     53.918923     53.918923    107.837847
     -4.935622     60.433648     60.433648    120.867296
     -4.907010     68.440481     68.440481    136.880962
     -4.878398     77.749363     77.749363    155.498727
     -4.849785     87.831755     87.831755    175.663509
     -4.821173     97.696571     97.696571    195.393142
     -4.792561    105.854290    105.854290    211.708580
     -4.763948    110.592929    110.592929    221.185859
     -4.735336    110.613959    110.613959    221.227919
     -4.706724    105.666863    105.666863    211.333726
     -4.678112     96.671126     96.671126    193.342253
     -4.649499     85.234782     85.234782    170.469564
     -4.620887     73.037483     73.037483    146.074965
     -4.592275     61.549995     61.549995    123.099989
     -4.563662     52.027615     52.027615    104.055229
     -4.535050     45.384988     45.384988     90.769976
     -4.506438     41.865896     41.865896     83.731791
     -4.477825     40.889507     40.889507     81.779014
     -4.449213     41.389387     41.389387     82.778774
     -4.420601     42.419343     42.419343     84.838686
     -4.391989     43.509461     43.509461     87.018921
     -4.363376     44.604059     44.604059     89.208117
     -4.334764     45.905004     45.905004     91.810008
     -4.306152     47.911084     47.911084     95.822167
     -4.277539     51.482618     51.482618    102.965235
     -4.248927     57.550800     57.550800    115.101601
     -4.220315     66.454653     66.454653    132.909307
     -4.191702     77.388915     77.388915    154.777831
     -4.163090     88.462012     88.462012    176.924024
     -4.134478     97.374388     97.374388    194.748776
     -4.105866    102.305141    102.305141    204.610281
     -4.077253    102.585752    102.585752    205.171504
     -4.048641     98.900860     98.900860    197.801720
     -4.020029     92.877553     92.877553    185.755105
     -3.991416     86.194737     86.194737    172.389474
     -3.962804     79.766519     79.766519    159.533038
     -3.934192     73.625192     73.625192    147.250385
     -3.905579     67.544940     67.544940    135.089881
     -3.876967     61.726876     61.726876    123.453752
     -3.848355     56.836803     56.836803    113.673606
     -3.819742     53.431703     53.431703    106.863405
     -3.791130     51.477455     51.477455    102.954910
     -3.762518     50.478764     50.478764    100.957528
     -3.733906     49.992389     49.992389     99.984778
     -3.705293     49.915082     49.915082     99.830164
     -3.676681     50.299548     50.299548    100.599096
     -3.648069     50.997711     50.997711    101.995423
     -3.619456     51.537891     51.537891    103.075782
     -3.590844     51.340030     51.340030    102.680061
     -3.562232     50.068412     50.068412    100.136825
     -3.533619     47.849920     47.849920     95.699841
     -3.505007     45.221508     45.221508     90.443015
     -3.476395     42.880124     42.880124     85.760248
     -3.447783     41.425668     41.425668     82.851337
     -3.419170     41.210026     41.210026     82.420051
     -3.390558     42.242437     42.242437     84.484874
     -3.361946     44.100975     44.100975     88.201951
     -3.333333     45.991292     45.991292     91.982585
     -3.304721     47.140940     47.140940     94.281880
     -3.276109     47.376994     47.376994     94.753988
     -3.247496     47.358398     47.358398     94.716796
     -3.218884     48.113615     48.113615     96.227229
     -3.190272     50.213019     50.213019    100.426038
     -3.161660     53.304511     53.304511    106.609021
     -3.133047     56.360999     56.360999    112.721997
     -3.104435     58.305180     58.305180    116.610359
     -3.075823     58.491226     58.491226    116.982452
     -3.047210     56.886755     56.886755    113.773510
     -3.018598     54.073601     54.073601    108.147203
     -2.989986     51.080371     51.080371    102.160742
     -2.961373     48.984007     48.984007     97.968014
     -2.932761     48.452101     48.452101     96.904202
     -2.904149     49.564429     49.564429     99.128858
     -2.875536     52.005169     52.005169    104.010337
     -2.846924     55.370848     55.370848    110.741695
     -2.818312     59.330459     59.330459    118.660919
     -2.789700     63.601500     63.601500    127.202999
     -2.761087     67.835495     67.835495    135.670989
     -2.732475     71.502267     71.502267    143.004534
     -2.703863     73.864199     73.864199    147.728397
     -2.675250     74.141549     74.141549    148.283097
     -2.646638     71.878100     71.878100    143.756200
     -2.618026     67.310215     67.310215    134.620430
     -2.589413     61.413345     61.413345    122.826690
     -2.560801     55.483686     55.483686    110.967372
     -2.532189     50.528622     50.528622    101.057244
     -2.503577     46.948021     46.948021     93.896042
     -2.474964     44.706490     44.706490     89.412979
     -2.446352     43.715493     43.715493     87.430986
     -2.417740     43.998722     43.998722     87.997444
     -2.389127     45.524758     45.524758     91.049515
     -2.360515     47.965858     47.965858     95.931716
     -2.331903     50.691713     50.691713    101.383426
     -2.303290     53.045341     53.045341    106.090682
     -2.274678     54.669512     54.669512    109.339025
     -2.246066     55.595591     55.595591    111.191182
     -2.217454     55.997378     55.997378    111.994755
     -2.188841     55.810646     55.810646    111.621293
     -2.160229     54.596687     54.596687    109.193373
     -2.131617     51.868861     51.868861    103.737722
     -2.103004     47.654909     47.654909     95.309818
     -2.074392     42.781080     42.781080     85.562159
     -2.045780     38.621000     38.621000     77.242000
     -2.017167     36.573141     36.573141     73.146283
     -1.988555     37.663196     37.663196     75.326393
     -1.959943     42.321060     42.321060     84.642120
     -1.931330     50.157953     50.157953    100.315907
     -1.902718     59.813970     59.813970    119.627940
     -1.874106     69.210484     69.210484    138.420968
     -1.845494     76.293765     76.293765    152.587529
     -1.816881     79.833041     79.833041    159.666083
     -1.788269     79.728725     79.728725    159.457450
     -1.759657     76.742315     76.742315    153.484631
     -1.731044     72.004802     72.004802    144.009604
     -1.702432     66.641319     66.641319    133.282638
     -1.673820     61.566787     61.566787    123.133574
     -1.645207     57.367371     57.367371    114.734742
     -1.616595     54.246295     54.246295    108.492590
     -1.587983     52.072571     52.072571    104.145141
     -1.559371     50.505412     50.505412    101.010823
     -1.530758     49.082444     49.082444     98.164889
     -1.502146     47.245509     47.245509     94.491018
     -1.473534     44.469928     44.469928     88.939856
     -1.444921     40.603212     40.603212     81.206424
     -1.416309     36.141895     36.141895     72.283790
     -1.387697     32.036743     32.036743     64.073486
     -1.359084     29.085094     29.085094     58.170189
     -1.330472     27.468573     27.468573     54.937146
     -1.301860     26.803385     26.803385     53.606770
     -1.273247     26.481776     26.481776     52.963552
     -1.244635     25.924191     25.924191     51.848382
     -1.216023     24.699437     24.699437     49.398874
     -1.187411     22.657051     22.657051     45.314101
     -1.158798     20.020640     20.020640     40.041280
     -1.130186     17.263680     17.263680     34.527360
     -1.101574     14.805611     14.805611     29.611221
     -1.072961     12.795401     12.795401     25.590801
     -1.044349     11.149374     11.149374     22.298748
     -1.015737      9.740286      9.740286     19.480573
     -0.987124      8.534581      8.534581     17.069161
     -0.958512      7.585914      7.585914     15.171829
     -0.929900      6.938268      6.938268     13.876537
     -0.901288      6.556004      6.556004     13.112009
     -0.872675      6.354982      6.354982     12.709963
     -0.844063      6.287949      6.287949     12.575897
     -0.815451      6.361369      6.361369     12.722738
     -0.786838      6.539380      6.539380     13.078761
     -0.758226      6.646737      6.646737     13.293473
     -0.729614      6.418533      6.418533     12.837067
     -0.701001      5.694384      5.694384     11.388768
     -0.672389      4.582583      4.582583      9.165166
     -0.643777      3.428487      3.428487      6.856973
     -0.615165      2.603196      2.603196      5.206392
     -0.586552      2.281244      2.281244      4.562488
     -0.557940      2.360505      2.360505      4.721010
     -0.529328      2.553633      2.553633      5.107266
     -0.500715      2.572387      2.572387      5.144773
     -0.472103      2.285405      2.285405      4.570811
     -0.443491      1.758493      1.758493      3.516986
     -0.414878      1.172736      1.172736      2.345472
     -0.386266      0.702114      0.702114      1.404229
     -0.357654      0.441672      0.441672      0.883343
     -0.329041      0.407883      0.407883      0.815766
     -0.300429      0.566300      0.566300      1.132600
