# EIG2DOS: Utility for SIESTA to obtain the electronic density of states
#  E. Artacho, Apr 1999, A. Garcia, Apr 2012
# ------------------------------------------
# Eigenvalues read from 3mos2-1graphene.EIG
# Using smearing parameter:   0.100
# Using    700 points in energy range
# Selected bands: 1 to: 2618
# Emin, emax in file for selected band(s):    -23.0815900    142.6447300
# Nbands, Nspin, Nk   =   2618     1    13
# E_F                 =    -4.9267 eV --> (shifted to ZERO)
# Broadening          =     0.1000 eV
#
#        E            N(up)  (=)   N(down)         Ntot
    -10.000000      2.551217      2.551217      5.102434
     -9.971388      1.915057      1.915057      3.830115
     -9.942775      1.667571      1.667571      3.335142
     -9.914163      1.771144      1.771144      3.542287
     -9.885551      2.123563      2.123563      4.247126
     -9.856938      2.652486      2.652486      5.304973
     -9.828326      3.332544      3.332544      6.665088
     -9.799714      4.117820      4.117820      8.235640
     -9.771102      4.874267      4.874267      9.748534
     -9.742489      5.395397      5.395397     10.790795
     -9.713877      5.493802      5.493802     10.987604
     -9.685265      5.092918      5.092918     10.185836
     -9.656652      4.262608      4.262608      8.525216
     -9.628040      3.192676      3.192676      6.385353
     -9.599428      2.121329      2.121329      4.242658
     -9.570815      1.248588      1.248588      2.497177
     -9.542203      0.682763      0.682763      1.365526
     -9.513591      0.455925      0.455925      0.911851
     -9.484979      0.590604      0.590604      1.181208
     -9.456366      1.151967      1.151967      2.303933
     -9.427754      2.222028      2.222028      4.444057
     -9.399142      3.788313      3.788313      7.576626
     -9.370529      5.621800      5.621800     11.243601
     -9.341917      7.267113      7.267113     14.534227
     -9.313305      8.211614      8.211614     16.423229
     -9.284692      8.152947      8.152947     16.305894
     -9.256080      7.177766      7.177766     14.355531
     -9.227468      5.715914      5.715914     11.431828
     -9.198856      4.304802      4.304802      8.609604
     -9.170243      3.332288      3.332288      6.664577
     -9.141631      2.913819      2.913819      5.827639
     -9.113019      2.932084      2.932084      5.864168
     -9.084406      3.154867      3.154867      6.309733
     -9.055794      3.347700      3.347700      6.695399
     -9.027182      3.369902      3.369902      6.739804
     -8.998569      3.259097      3.259097      6.518193
     -8.969957      3.246843      3.246843      6.493686
     -8.941345      3.630349      3.630349      7.260697
     -8.912732      4.536010      4.536010      9.072021
     -8.884120      5.753608      5.753608     11.507215
     -8.855508      6.820347      6.820347     13.640694
     -8.826896      7.337074      7.337074     14.674147
     -8.798283      7.264236      7.264236     14.528471
     -8.769671      6.925952      6.925952     13.851905
     -8.741059      6.709946      6.709946     13.419891
     -8.712446      6.739460      6.739460     13.478921
     -8.683834      6.811709      6.811709     13.623419
     -8.655222      6.632567      6.632567     13.265134
     -8.626609      6.098605      6.098605     12.197210
     -8.597997      5.359197      5.359197     10.718394
     -8.569385      4.645756      4.645756      9.291512
     -8.540773      4.098471      4.098471      8.196941
     -8.512160      3.772739      3.772739      7.545477
     -8.483548      3.745762      3.745762      7.491524
     -8.454936      4.117143      4.117143      8.234287
     -8.426323      4.863570      4.863570      9.727139
     -8.397711      5.733265      5.733265     11.466531
     -8.369099      6.347472      6.347472     12.694945
     -8.340486      6.435381      6.435381     12.870762
     -8.311874      5.977840      5.977840     11.955680
     -8.283262      5.161540      5.161540     10.323080
     -8.254649      4.260105      4.260105      8.520210
     -8.226037      3.574244      3.574244      7.148487
     -8.197425      3.403279      3.403279      6.806557
     -8.168813      3.945078      3.945078      7.890157
     -8.140200      5.133632      5.133632     10.267265
     -8.111588      6.567769      6.567769     13.135537
     -8.082976      7.676153      7.676153     15.352306
     -8.054363      8.073848      8.073848     16.147696
     -8.025751      7.846403      7.846403     15.692807
     -7.997139      7.483939      7.483939     14.967878
     -7.968526      7.465675      7.465675     14.931350
     -7.939914      7.835133      7.835133     15.670265
     -7.911302      8.150843      8.150843     16.301686
     -7.882690      7.862625      7.862625     15.725251
     -7.854077      6.771935      6.771935     13.543870
     -7.825465      5.182952      5.182952     10.365904
     -7.796853      3.666881      3.666881      7.333762
     -7.768240      2.687566      2.687566      5.375132
     -7.739628      2.371587      2.371587      4.743174
     -7.711016      2.521138      2.521138      5.042275
     -7.682403      2.803600      2.803600      5.607200
     -7.653791      2.990626      2.990626      5.981251
     -7.625179      3.107768      3.107768      6.215537
     -7.596567      3.395060      3.395060      6.790121
     -7.567954      4.103605      4.103605      8.207210
     -7.539342      5.286633      5.286633     10.573267
     -7.510730      6.746072      6.746072     13.492143
     -7.482117      8.152603      8.152603     16.305207
     -7.453505      9.216434      9.216434     18.432869
     -7.424893      9.784108      9.784108     19.568216
     -7.396280      9.839979      9.839979     19.679959
     -7.367668      9.461637      9.461637     18.923273
     -7.339056      8.766783      8.766783     17.533565
     -7.310443      7.862820      7.862820     15.725640
     -7.281831      6.814995      6.814995     13.629990
     -7.253219      5.654450      5.654450     11.308900
     -7.224607      4.425711      4.425711      8.851421
     -7.195994      3.239161      3.239161      6.478323
     -7.167382      2.283211      2.283211      4.566422
     -7.138770      1.780332      1.780332      3.560664
     -7.110157      1.909276      1.909276      3.818552
     -7.081545      2.722331      2.722331      5.444661
     -7.052933      4.084030      4.084030      8.168059
     -7.024320      5.680545      5.680545     11.361091
     -6.995708      7.142087      7.142087     14.284173
     -6.967096      8.221991      8.221991     16.443983
     -6.938484      8.882161      8.882161     17.764322
     -6.909871      9.207955      9.207955     18.415911
     -6.881259      9.267003      9.267003     18.534005
     -6.852647      9.084166      9.084166     18.168332
     -6.824034      8.737081      8.737081     17.474163
     -6.795422      8.408336      8.408336     16.816673
     -6.766810      8.288085      8.288085     16.576170
     -6.738197      8.419254      8.419254     16.838507
     -6.709585      8.658567      8.658567     17.317134
     -6.680973      8.802330      8.802330     17.604659
     -6.652361      8.755389      8.755389     17.510778
     -6.623748      8.598138      8.598138     17.196277
     -6.595136      8.534818      8.534818     17.069636
     -6.566524      8.808365      8.808365     17.616730
     -6.537911      9.630686      9.630686     19.261372
     -6.509299     11.115732     11.115732     22.231463
     -6.480687     13.237055     13.237055     26.474110
     -6.452074     15.864740     15.864740     31.729481
     -6.423462     18.852159     18.852159     37.704319
     -6.394850     22.056170     22.056170     44.112340
     -6.366237     25.254564     25.254564     50.509128
     -6.337625     28.098171     28.098171     56.196342
     -6.309013     30.262768     30.262768     60.525535
     -6.280401     31.758933     31.758933     63.517866
     -6.251788     33.112037     33.112037     66.224073
     -6.223176     35.141417     35.141417     70.282834
     -6.194564     38.426005     38.426005     76.852010
     -6.165951     42.918942     42.918942     85.837884
     -6.137339     48.104548     48.104548     96.209096
     -6.108727     53.547408     53.547408    107.094816
     -6.080114     59.237022     59.237022    118.474044
     -6.051502     65.342928     65.342928    130.685856
     -6.022890     71.688005     71.688005    143.376010
     -5.994278     77.614662     77.614662    155.229325
     -5.965665     82.464080     82.464080    164.928160
     -5.937053     86.125812     86.125812    172.251623
     -5.908441     89.007807     89.007807    178.015613
     -5.879828     91.475484     91.475484    182.950967
     -5.851216     93.422350     93.422350    186.844700
     -5.822604     94.432684     94.432684    188.865368
     -5.793991     94.313524     94.313524    188.627047
     -5.765379     93.430877     93.430877    186.861754
     -5.736767     92.556538     92.556538    185.113076
     -5.708155     92.405273     92.405273    184.810545
     -5.679542     93.231992     93.231992    186.463983
     -5.650930     94.691634     94.691634    189.383268
     -5.622318     95.949365     95.949365    191.898729
     -5.593705     96.005875     96.005875    192.011750
     -5.565093     94.205014     94.205014    188.410028
     -5.536481     90.681213     90.681213    181.362426
     -5.507868     86.324542     86.324542    172.649083
     -5.479256     82.140654     82.140654    164.281308
     -5.450644     78.500866     78.500866    157.001732
     -5.422031     74.969755     74.969755    149.939510
     -5.393419     70.844738     70.844738    141.689476
     -5.364807     65.848064     65.848064    131.696127
     -5.336195     60.333744     60.333744    120.667488
     -5.307582     54.916869     54.916869    109.833738
     -5.278970     49.981934     49.981934     99.963868
     -5.250358     45.577919     45.577919     91.155838
     -5.221745     41.763525     41.763525     83.527051
     -5.193133     38.946185     38.946185     77.892370
     -5.164521     37.701149     37.701149     75.402298
     -5.135908     38.118395     38.118395     76.236789
     -5.107296     39.347138     39.347138     78.694276
     -5.078684     39.935878     39.935878     79.871755
     -5.050072     38.803903     38.803903     77.607805
     -5.021459     36.049116     36.049116     72.098233
     -4.992847     32.944159     32.944159     65.888319
     -4.964235     31.176683     31.176683     62.353366
     -4.935622     31.952188     31.952188     63.904376
     -4.907010     35.579817     35.579817     71.159633
     -4.878398     41.691359     41.691359     83.382717
     -4.849785     49.704944     49.704944     99.409887
     -4.821173     59.012319     59.012319    118.024638
     -4.792561     68.802881     68.802881    137.605762
     -4.763948     77.971123     77.971123    155.942245
     -4.735336     85.506682     85.506682    171.013364
     -4.706724     91.119989     91.119989    182.239978
     -4.678112     95.395723     95.395723    190.791446
     -4.649499     99.152956     99.152956    198.305912
     -4.620887    102.582943    102.582943    205.165886
     -4.592275    105.084360    105.084360    210.168719
     -4.563662    106.007270    106.007270    212.014539
     -4.535050    105.490218    105.490218    210.980436
     -4.506438    104.426761    104.426761    208.853521
     -4.477825    103.544328    103.544328    207.088656
     -4.449213    102.558800    102.558800    205.117601
     -4.420601    100.298366    100.298366    200.596732
     -4.391989     95.698358     95.698358    191.396716
     -4.363376     88.740483     88.740483    177.480967
     -4.334764     80.528575     80.528575    161.057151
     -4.306152     72.528609     72.528609    145.057217
     -4.277539     65.724840     65.724840    131.449681
     -4.248927     60.446669     60.446669    120.893337
     -4.220315     56.931185     56.931185    113.862369
     -4.191702     55.896021     55.896021    111.792042
     -4.163090     58.284103     58.284103    116.568206
     -4.134478     64.207638     64.207638    128.415277
     -4.105866     72.193873     72.193873    144.387746
     -4.077253     79.791044     79.791044    159.582087
     -4.048641     85.197025     85.197025    170.394050
     -4.020029     88.360881     88.360881    176.721761
     -3.991416     90.510950     90.510950    181.021899
     -3.962804     92.744594     92.744594    185.489188
     -3.934192     95.184432     95.184432    190.368864
     -3.905579     97.350157     97.350157    194.700315
     -3.876967     98.998819     98.998819    197.997637
     -3.848355    100.377932    100.377932    200.755863
     -3.819742    101.736676    101.736676    203.473351
     -3.791130    102.806227    102.806227    205.612455
     -3.762518    102.855303    102.855303    205.710606
     -3.733906    101.200112    101.200112    202.400224
     -3.705293     97.643622     97.643622    195.287244
     -3.676681     92.551697     92.551697    185.103393
     -3.648069     86.647990     86.647990    173.295980
     -3.619456     80.702282     80.702282    161.404564
     -3.590844     75.241942     75.241942    150.483883
     -3.562232     70.433742     70.433742    140.867485
     -3.533619     66.214224     66.214224    132.428448
     -3.505007     62.512183     62.512183    125.024365
     -3.476395     59.316254     59.316254    118.632507
     -3.447783     56.586343     56.586343    113.172685
     -3.419170     54.243186     54.243186    108.486371
     -3.390558     52.321433     52.321433    104.642865
     -3.361946     51.056386     51.056386    102.112771
     -3.333333     50.684508     50.684508    101.369015
     -3.304721     51.106814     51.106814    102.213628
     -3.276109     51.818351     51.818351    103.636703
     -3.247496     52.281105     52.281105    104.562209
     -3.218884     52.413789     52.413789    104.827579
     -3.190272     52.664067     52.664067    105.328135
     -3.161660     53.522529     53.522529    107.045057
     -3.133047     54.960298     54.960298    109.920596
     -3.104435     56.415169     56.415169    112.830338
     -3.075823     57.379227     57.379227    114.758455
     -3.047210     57.943761     57.943761    115.887522
     -3.018598     58.654737     58.654737    117.309474
     -2.989986     59.811996     59.811996    119.623992
     -2.961373     61.043729     61.043729    122.087459
     -2.932761     61.728205     61.728205    123.456410
     -2.904149     61.841888     61.841888    123.683775
     -2.875536     62.251926     62.251926    124.503853
     -2.846924     64.038714     64.038714    128.077428
     -2.818312     67.489199     67.489199    134.978397
     -2.789700     71.770778     71.770778    143.541557
     -2.761087     75.626107     75.626107    151.252213
     -2.732475     78.436123     78.436123    156.872245
     -2.703863     80.634869     80.634869    161.269739
     -2.675250     83.065504     83.065504    166.131007
     -2.646638     85.908612     85.908612    171.817225
     -2.618026     88.298931     88.298931    176.597861
     -2.589413     89.111902     89.111902    178.223803
     -2.560801     88.178799     88.178799    176.357597
     -2.532189     86.637369     86.637369    173.274738
     -2.503577     85.935788     85.935788    171.871576
     -2.474964     86.420472     86.420472    172.840944
     -2.446352     86.949526     86.949526    173.899052
     -2.417740     85.980241     85.980241    171.960482
     -2.389127     83.075154     83.075154    166.150308
     -2.360515     79.317154     79.317154    158.634309
     -2.331903     76.217465     76.217465    152.434930
     -2.303290     74.231428     74.231428    148.462855
     -2.274678     72.382142     72.382142    144.764284
     -2.246066     69.352304     69.352304    138.704608
     -2.217454     64.954466     64.954466    129.908932
     -2.188841     60.577696     60.577696    121.155393
     -2.160229     58.210493     58.210493    116.420986
     -2.131617     58.886232     58.886232    117.772464
     -2.103004     61.818318     61.818318    123.636637
     -2.074392     64.892900     64.892900    129.785800
     -2.045780     66.120560     66.120560    132.241120
     -2.017167     64.919106     64.919106    129.838211
     -1.988555     62.284603     62.284603    124.569206
     -1.959943     59.857959     59.857959    119.715918
     -1.931330     58.748788     58.748788    117.497577
     -1.902718     59.018852     59.018852    118.037704
     -1.874106     60.061055     60.061055    120.122109
     -1.845494     61.374971     61.374971    122.749943
     -1.816881     62.997723     62.997723    125.995446
     -1.788269     65.261928     65.261928    130.523856
     -1.759657     68.231336     68.231336    136.462672
     -1.731044     71.439725     71.439725    142.879451
     -1.702432     74.195476     74.195476    148.390953
     -1.673820     76.149180     76.149180    152.298361
     -1.645207     77.589425     77.589425    155.178849
     -1.616595     79.170923     79.170923    158.341845
     -1.587983     81.270061     81.270061    162.540122
     -1.559371     83.520823     83.520823    167.041646
     -1.530758     84.968907     84.968907    169.937814
     -1.502146     84.727450     84.727450    169.454900
     -1.473534     82.544514     82.544514    165.089028
     -1.444921     78.826520     78.826520    157.653039
     -1.416309     74.261281     74.261281    148.522561
     -1.387697     69.513079     69.513079    139.026158
     -1.359084     65.145935     65.145935    130.291871
     -1.330472     61.519247     61.519247    123.038493
     -1.301860     58.552821     58.552821    117.105642
     -1.273247     55.696194     55.696194    111.392389
     -1.244635     52.362244     52.362244    104.724488
     -1.216023     48.481293     48.481293     96.962586
     -1.187411     44.559845     44.559845     89.119691
     -1.158798     41.147579     41.147579     82.295157
     -1.130186     38.299469     38.299469     76.598939
     -1.101574     35.609940     35.609940     71.219880
     -1.072961     32.719354     32.719354     65.438709
     -1.044349     29.684199     29.684199     59.368397
     -1.015737     26.837354     26.837354     53.674708
     -0.987124     24.381070     24.381070     48.762139
     -0.958512     22.189155     22.189155     44.378310
     -0.929900     19.968247     19.968247     39.936495
     -0.901288     17.543066     17.543066     35.086133
     -0.872675     14.999709     14.999709     29.999417
     -0.844063     12.624577     12.624577     25.249155
     -0.815451     10.722051     10.722051     21.444102
     -0.786838      9.430376      9.430376     18.860752
     -0.758226      8.656711      8.656711     17.313423
     -0.729614      8.182476      8.182476     16.364953
     -0.701001      7.834315      7.834315     15.668631
     -0.672389      7.545306      7.545306     15.090611
     -0.643777      7.271796      7.271796     14.543591
     -0.615165      6.911848      6.911848     13.823695
     -0.586552      6.346019      6.346019     12.692038
     -0.557940      5.541267      5.541267     11.082534
     -0.529328      4.584113      4.584113      9.168225
     -0.500715      3.618193      3.618193      7.236386
     -0.472103      2.771905      2.771905      5.543809
     -0.443491      2.133109      2.133109      4.266218
     -0.414878      1.742518      1.742518      3.485035
     -0.386266      1.572152      1.572152      3.144305
     -0.357654      1.516055      1.516055      3.032109
     -0.329041      1.435661      1.435661      2.871322
     -0.300429      1.241561      1.241561      2.483123
