# EIG2DOS: Utility for SIESTA to obtain the electronic density of states
#  E. Artacho, Apr 1999, A. Garcia, Apr 2012
# ------------------------------------------
# Eigenvalues read from 2mos2-3graphene.EIG
# Using smearing parameter:   0.100
# Using    700 points in energy range
# Selected bands: 1 to: 3262
# Emin, emax in file for selected band(s):    -23.2071000    159.6247600
# Nbands, Nspin, Nk   =   3262     1    13
# E_F                 =    -4.9617 eV --> (shifted to ZERO)
# Broadening          =     0.1000 eV
#
#        E            N(up)  (=)   N(down)         Ntot
    -10.000000      8.380808      8.380808     16.761616
     -9.971388      7.096832      7.096832     14.193664
     -9.942775      6.524042      6.524042     13.048085
     -9.914163      6.743660      6.743660     13.487320
     -9.885551      7.680672      7.680672     15.361344
     -9.856938      9.131470      9.131470     18.262940
     -9.828326     10.814356     10.814356     21.628713
     -9.799714     12.425460     12.425460     24.850920
     -9.771102     13.676046     13.676046     27.352092
     -9.742489     14.309923     14.309923     28.619846
     -9.713877     14.134148     14.134148     28.268296
     -9.685265     13.082446     13.082446     26.164892
     -9.656652     11.272099     11.272099     22.544197
     -9.628040      8.995798      8.995798     17.991596
     -9.599428      6.645715      6.645715     13.291430
     -9.570815      4.625679      4.625679      9.251358
     -9.542203      3.300059      3.300059      6.600118
     -9.513591      2.976228      2.976228      5.952456
     -9.484979      3.879181      3.879181      7.758362
     -9.456366      6.080239      6.080239     12.160478
     -9.427754      9.390649      9.390649     18.781298
     -9.399142     13.297757     13.297757     26.595515
     -9.370529     17.035857     17.035857     34.071714
     -9.341917     19.805034     19.805034     39.610068
     -9.313305     21.041616     21.041616     42.083231
     -9.284692     20.604673     20.604673     41.209345
     -9.256080     18.798024     18.798024     37.596048
     -9.227468     16.236459     16.236459     32.472918
     -9.198856     13.625747     13.625747     27.251495
     -9.170243     11.539146     11.539146     23.078292
     -9.141631     10.258110     10.258110     20.516220
     -9.113019      9.730583      9.730583     19.461167
     -9.084406      9.678529      9.678529     19.357059
     -9.055794      9.818548      9.818548     19.637096
     -9.027182     10.065375     10.065375     20.130749
     -8.998569     10.570307     10.570307     21.140614
     -8.969957     11.561837     11.561837     23.123675
     -8.941345     13.116493     13.116493     26.232986
     -8.912732     15.046864     15.046864     30.093727
     -8.884120     16.992682     16.992682     33.985363
     -8.855508     18.625851     18.625851     37.251702
     -8.826896     19.793974     19.793974     39.587947
     -8.798283     20.509312     20.509312     41.018624
     -8.769671     20.841582     20.841582     41.683163
     -8.741059     20.831846     20.831846     41.663691
     -8.712446     20.480257     20.480257     40.960514
     -8.683834     19.775451     19.775451     39.550902
     -8.655222     18.718450     18.718450     37.436899
     -8.626609     17.341808     17.341808     34.683616
     -8.597997     15.754885     15.754885     31.509769
     -8.569385     14.198465     14.198465     28.396930
     -8.540773     13.024881     13.024881     26.049763
     -8.512160     12.555568     12.555568     25.111136
     -8.483548     12.900510     12.900510     25.801020
     -8.454936     13.889291     13.889291     27.778582
     -8.426323     15.162754     15.162754     30.325508
     -8.397711     16.323769     16.323769     32.647539
     -8.369099     17.028955     17.028955     34.057910
     -8.340486     17.028153     17.028153     34.056305
     -8.311874     16.241315     16.241315     32.482629
     -8.283262     14.877041     14.877041     29.754082
     -8.254649     13.462034     13.462034     26.924067
     -8.226037     12.668644     12.668644     25.337288
     -8.197425     12.998103     12.998103     25.996205
     -8.168813     14.514065     14.514065     29.028130
     -8.140200     16.804052     16.804052     33.608104
     -8.111588     19.204519     19.204519     38.409038
     -8.082976     21.150132     21.150132     42.300265
     -8.054363     22.415101     22.415101     44.830201
     -8.025751     23.097732     23.097732     46.195464
     -7.997139     23.404609     23.404609     46.809218
     -7.968526     23.428142     23.428142     46.856284
     -7.939914     23.067804     23.067804     46.135608
     -7.911302     22.106717     22.106717     44.213433
     -7.882690     20.369701     20.369701     40.739402
     -7.854077     17.883966     17.883966     35.767933
     -7.825465     14.965266     14.965266     29.930531
     -7.796853     12.149377     12.149377     24.298753
     -7.768240      9.963332      9.963332     19.926663
     -7.739628      8.679071      8.679071     17.358142
     -7.711016      8.245531      8.245531     16.491063
     -7.682403      8.446080      8.446080     16.892160
     -7.653791      9.125552      9.125552     18.251103
     -7.625179     10.296813     10.296813     20.593626
     -7.596567     12.075588     12.075588     24.151176
     -7.567954     14.528304     14.528304     29.056609
     -7.539342     17.543686     17.543686     35.087372
     -7.510730     20.795354     20.795354     41.590708
     -7.482117     23.814007     23.814007     47.628014
     -7.453505     26.138150     26.138150     52.276300
     -7.424893     27.460724     27.460724     54.921447
     -7.396280     27.683153     27.683153     55.366306
     -7.367668     26.861601     26.861601     53.723202
     -7.339056     25.119235     25.119235     50.238470
     -7.310443     22.606784     22.606784     45.213567
     -7.281831     19.523446     19.523446     39.046893
     -7.253219     16.151882     16.151882     32.303765
     -7.224607     12.867137     12.867137     25.734273
     -7.195994     10.115569     10.115569     20.231138
     -7.167382      8.368575      8.368575     16.737150
     -7.138770      8.033105      8.033105     16.066209
     -7.110157      9.309002      9.309002     18.618003
     -7.081545     12.058218     12.058218     24.116436
     -7.052933     15.804327     15.804327     31.608654
     -7.024320     19.897623     19.897623     39.795246
     -6.995708     23.727868     23.727868     47.455737
     -6.967096     26.843864     26.843864     53.687727
     -6.938484     28.979184     28.979184     57.958368
     -6.909871     30.076805     30.076805     60.153611
     -6.881259     30.319588     30.319588     60.639176
     -6.852647     30.068231     30.068231     60.136462
     -6.824034     29.677023     29.677023     59.354045
     -6.795422     29.313959     29.313959     58.627918
     -6.766810     28.929239     28.929239     57.858477
     -6.738197     28.373404     28.373404     56.746809
     -6.709585     27.548846     27.548846     55.097692
     -6.680973     26.494888     26.494888     52.989776
     -6.652361     25.385178     25.385178     50.770356
     -6.623748     24.463800     24.463800     48.927599
     -6.595136     23.965414     23.965414     47.930827
     -6.566524     24.076501     24.076501     48.153003
     -6.537911     24.962533     24.962533     49.925065
     -6.509299     26.798889     26.798889     53.597778
     -6.480687     29.713153     29.713153     59.426305
     -6.452074     33.659379     33.659379     67.318758
     -6.423462     38.356883     38.356883     76.713766
     -6.394850     43.343697     43.343697     86.687393
     -6.366237     48.042950     48.042950     96.085899
     -6.337625     51.805049     51.805049    103.610097
     -6.309013     54.081712     54.081712    108.163425
     -6.280401     54.808749     54.808749    109.617498
     -6.251788     54.708407     54.708407    109.416814
     -6.223176     55.099278     55.099278    110.198557
     -6.194564     57.222871     57.222871    114.445742
     -6.165951     61.606766     61.606766    123.213532
     -6.137339     67.946801     67.946801    135.893602
     -6.108727     75.448863     75.448863    150.897727
     -6.080114     83.197734     83.197734    166.395468
     -6.051502     90.318759     90.318759    180.637519
     -6.022890     96.086042     96.086042    192.172084
     -5.994278    100.132631    100.132631    200.265262
     -5.965665    102.600969    102.600969    205.201937
     -5.937053    103.989962    103.989962    207.979925
     -5.908441    104.774620    104.774620    209.549241
     -5.879828    105.135030    105.135030    210.270060
     -5.851216    104.971209    104.971209    209.942418
     -5.822604    104.066572    104.066572    208.133145
     -5.793991    102.237018    102.237018    204.474037
     -5.765379     99.492034     99.492034    198.984068
     -5.736767     96.218860     96.218860    192.437721
     -5.708155     93.161300     93.161300    186.322600
     -5.679542     90.982251     90.982251    181.964501
     -5.650930     89.655735     89.655735    179.311470
     -5.622318     88.277072     88.277072    176.554143
     -5.593705     85.579968     85.579968    171.159936
     -5.565093     80.814292     80.814292    161.628585
     -5.536481     74.350615     74.350615    148.701231
     -5.507868     67.594372     67.594372    135.188744
     -5.479256     62.225872     62.225872    124.451744
     -5.450644     59.222397     59.222397    118.444793
     -5.422031     58.343688     58.343688    116.687375
     -5.393419     58.451047     58.451047    116.902094
     -5.364807     58.320146     58.320146    116.640292
     -5.336195     57.245432     57.245432    114.490863
     -5.307582     55.126361     55.126361    110.252722
     -5.278970     52.292021     52.292021    104.584042
     -5.250358     49.341375     49.341375     98.682749
     -5.221745     46.945603     46.945603     93.891205
     -5.193133     45.538135     45.538135     91.076269
     -5.164521     45.099306     45.099306     90.198613
     -5.135908     45.249936     45.249936     90.499872
     -5.107296     45.521289     45.521289     91.042578
     -5.078684     45.520298     45.520298     91.040596
     -5.050072     44.974686     44.974686     89.949372
     -5.021459     43.848118     43.848118     87.696236
     -4.992847     42.520352     42.520352     85.040703
     -4.964235     41.787070     41.787070     83.574140
     -4.935622     42.587152     42.587152     85.174305
     -4.907010     45.700418     45.700418     91.400836
     -4.878398     51.648192     51.648192    103.296384
     -4.849785     60.666918     60.666918    121.333836
     -4.821173     72.468782     72.468782    144.937565
     -4.792561     85.864938     85.864938    171.729875
     -4.763948     98.774007     98.774007    197.548014
     -4.735336    108.977977    108.977977    217.955954
     -4.706724    115.188806    115.188806    230.377612
     -4.678112    117.453913    117.453913    234.907827
     -4.649499    116.501916    116.501916    233.003833
     -4.620887    112.798999    112.798999    225.597997
     -4.592275    106.370089    106.370089    212.740179
     -4.563662     97.429089     97.429089    194.858178
     -4.535050     86.922307     86.922307    173.844613
     -4.506438     76.374861     76.374861    152.749722
     -4.477825     67.300515     67.300515    134.601030
     -4.449213     60.698871     60.698871    121.397743
     -4.420601     56.826449     56.826449    113.652899
     -4.391989     55.216753     55.216753    110.433505
     -4.363376     54.953869     54.953869    109.907738
     -4.334764     55.109382     55.109382    110.218765
     -4.306152     55.078650     55.078650    110.157300
     -4.277539     54.658995     54.658995    109.317989
     -4.248927     54.030487     54.030487    108.060973
     -4.220315     53.841554     53.841554    107.683108
     -4.191702     55.240083     55.240083    110.480167
     -4.163090     59.470254     59.470254    118.940507
     -4.134478     67.055272     67.055272    134.110544
     -4.105866     77.211952     77.211952    154.423903
     -4.077253     88.108690     88.108690    176.217381
     -4.048641     97.765236     97.765236    195.530473
     -4.020029    104.783063    104.783063    209.566126
     -3.991416    108.453647    108.453647    216.907295
     -3.962804    108.547567    108.547567    217.095134
     -3.934192    105.216034    105.216034    210.432068
     -3.905579     98.991801     98.991801    197.983602
     -3.876967     90.708349     90.708349    181.416697
     -3.848355     81.418214     81.418214    162.836428
     -3.819742     72.430449     72.430449    144.860897
     -3.791130     65.251226     65.251226    130.502452
     -3.762518     61.143907     61.143907    122.287814
     -3.733906     60.487886     60.487886    120.975771
     -3.705293     62.486365     62.486365    124.972731
     -3.676681     65.523497     65.523497    131.046994
     -3.648069     67.917820     67.917820    135.835639
     -3.619456     68.574904     68.574904    137.149808
     -3.590844     67.236599     67.236599    134.473199
     -3.562232     64.343006     64.343006    128.686012
     -3.533619     60.689751     60.689751    121.379502
     -3.505007     57.060550     57.060550    114.121101
     -3.476395     53.965712     53.965712    107.931424
     -3.447783     51.572687     51.572687    103.145374
     -3.419170     49.825318     49.825318     99.650636
     -3.390558     48.633286     48.633286     97.266573
     -3.361946     47.984538     47.984538     95.969076
     -3.333333     47.911398     47.911398     95.822796
     -3.304721     48.351615     48.351615     96.703230
     -3.276109     49.050766     49.050766     98.101532
     -3.247496     49.670427     49.670427     99.340854
     -3.218884     50.075488     50.075488    100.150976
     -3.190272     50.515623     50.515623    101.031246
     -3.161660     51.459093     51.459093    102.918186
     -3.133047     53.209893     53.209893    106.419787
     -3.104435     55.673337     55.673337    111.346675
     -3.075823     58.424928     58.424928    116.849856
     -3.047210     60.902870     60.902870    121.805740
     -3.018598     62.539864     62.539864    125.079727
     -2.989986     62.889878     62.889878    125.779756
     -2.961373     61.849191     61.849191    123.698382
     -2.932761     59.834926     59.834926    119.669852
     -2.904149     57.669540     57.669540    115.339080
     -2.875536     56.173918     56.173918    112.347836
     -2.846924     55.788707     55.788707    111.577414
     -2.818312     56.513779     56.513779    113.027559
     -2.789700     58.142116     58.142116    116.284233
     -2.761087     60.539259     60.539259    121.078517
     -2.732475     63.736965     63.736965    127.473930
     -2.703863     67.758423     67.758423    135.516845
     -2.675250     72.290443     72.290443    144.580886
     -2.646638     76.505010     76.505010    153.010020
     -2.618026     79.306375     79.306375    158.612751
     -2.589413     79.925514     79.925514    159.851028
     -2.560801     78.395253     78.395253    156.790505
     -2.532189     75.466649     75.466649    150.933298
     -2.503577     72.013917     72.013917    144.027834
     -2.474964     68.464768     68.464768    136.929535
     -2.446352     64.781374     64.781374    129.562748
     -2.417740     60.962460     60.962460    121.924921
     -2.389127     57.480041     57.480041    114.960083
     -2.360515     55.121856     55.121856    110.243713
     -2.331903     54.352253     54.352253    108.704506
     -2.303290     54.832439     54.832439    109.664879
     -2.274678     55.594790     55.594790    111.189580
     -2.246066     55.737263     55.737263    111.474527
     -2.217454     55.052986     55.052986    110.105973
     -2.188841     54.122245     54.122245    108.244489
     -2.160229     53.852881     53.852881    107.705761
     -2.131617     54.810395     54.810395    109.620790
     -2.103004     56.749772     56.749772    113.499544
     -2.074392     58.631968     58.631968    117.263936
     -2.045780     59.150942     59.150942    118.301885
     -2.017167     57.489542     57.489542    114.979084
     -1.988555     53.867965     53.867965    107.735929
     -1.959943     49.574630     49.574630     99.149259
     -1.931330     46.450451     46.450451     92.900902
     -1.902718     46.062125     46.062125     92.124250
     -1.874106     48.986095     48.986095     97.972190
     -1.845494     54.620053     54.620053    109.240106
     -1.816881     61.608430     61.608430    123.216860
     -1.788269     68.500452     68.500452    137.000904
     -1.759657     74.139939     74.139939    148.279878
     -1.731044     77.685421     77.685421    155.370841
     -1.702432     78.595601     78.595601    157.191201
     -1.673820     76.835398     76.835398    153.670797
     -1.645207     73.097994     73.097994    146.195989
     -1.616595     68.643797     68.643797    137.287595
     -1.587983     64.706393     64.706393    129.412785
     -1.559371     61.888070     61.888070    123.776140
     -1.530758     60.009785     60.009785    120.019570
     -1.502146     58.452440     58.452440    116.904879
     -1.473534     56.618164     56.618164    113.236328
     -1.444921     54.184456     54.184456    108.368913
     -1.416309     51.155068     51.155068    102.310135
     -1.387697     47.823558     47.823558     95.647117
     -1.359084     44.608478     44.608478     89.216955
     -1.330472     41.748934     41.748934     83.497869
     -1.301860     39.135420     39.135420     78.270840
     -1.273247     36.535750     36.535750     73.071500
     -1.244635     33.982114     33.982114     67.964228
     -1.216023     31.797799     31.797799     63.595598
     -1.187411     30.169885     30.169885     60.339769
     -1.158798     28.782666     28.782666     57.565332
     -1.130186     26.987410     26.987410     53.974820
     -1.101574     24.353599     24.353599     48.707197
     -1.072961     21.036998     21.036998     42.073997
     -1.044349     17.654515     17.654515     35.309031
     -1.015737     14.864549     14.864549     29.729097
     -0.987124     13.025055     13.025055     26.050110
     -0.958512     12.095644     12.095644     24.191287
     -0.929900     11.723649     11.723649     23.447298
     -0.901288     11.416858     11.416858     22.833715
     -0.872675     10.757447     10.757447     21.514894
     -0.844063      9.601049      9.601049     19.202097
     -0.815451      8.152243      8.152243     16.304486
     -0.786838      6.844061      6.844061     13.688122
     -0.758226      6.090707      6.090707     12.181413
     -0.729614      6.074297      6.074297     12.148593
     -0.701001      6.664473      6.664473     13.328946
     -0.672389      7.463983      7.463983     14.927967
     -0.643777      7.957336      7.957336     15.914672
     -0.615165      7.746395      7.746395     15.492791
     -0.586552      6.772857      6.772857     13.545714
     -0.557940      5.354037      5.354037     10.708074
     -0.529328      3.971917      3.971917      7.943834
     -0.500715      2.978349      2.978349      5.956697
     -0.472103      2.446924      2.446924      4.893848
     -0.443491      2.238234      2.238234      4.476468
     -0.414878      2.155891      2.155891      4.311781
     -0.386266      2.052196      2.052196      4.104392
     -0.357654      1.855872      1.855872      3.711744
     -0.329041      1.571031      1.571031      3.142061
     -0.300429      1.270610      1.270610      2.541219
