# EIG2DOS: Utility for SIESTA to obtain the electronic density of states
#  E. Artacho, Apr 1999, A. Garcia, Apr 2012
# ------------------------------------------
# Eigenvalues read from 2mos2-1graphene.EIG
# Using smearing parameter:   0.100
# Using    700 points in energy range
# Selected bands: 1 to: 1962
# Emin, emax in file for selected band(s):    -22.9973400    143.8311700
# Nbands, Nspin, Nk   =   1962     1    13
# E_F                 =    -4.8416 eV --> (shifted to ZERO)
# Broadening          =     0.1000 eV
#
#        E            N(up)  (=)   N(down)         Ntot
    -10.000000      2.628738      2.628738      5.257476
     -9.971388      1.959032      1.959032      3.918064
     -9.942775      1.674545      1.674545      3.349091
     -9.914163      1.749078      1.749078      3.498156
     -9.885551      2.081882      2.081882      4.163764
     -9.856938      2.595470      2.595470      5.190940
     -9.828326      3.262064      3.262064      6.524127
     -9.799714      4.041434      4.041434      8.082868
     -9.771102      4.808821      4.808821      9.617643
     -9.742489      5.361405      5.361405     10.722811
     -9.713877      5.505464      5.505464     11.010927
     -9.685265      5.151342      5.151342     10.302685
     -9.656652      4.355249      4.355249      8.710498
     -9.628040      3.298080      3.298080      6.596160
     -9.599428      2.217191      2.217191      4.434382
     -9.570815      1.319402      1.319402      2.638805
     -9.542203      0.722212      0.722212      1.444423
     -9.513591      0.462449      0.462449      0.924899
     -9.484979      0.560440      0.560440      1.120880
     -9.456366      1.076783      1.076783      2.153566
     -9.427754      2.095605      2.095605      4.191211
     -9.399142      3.619584      3.619584      7.239168
     -9.370529      5.443818      5.443818     10.887637
     -9.341917      7.130425      7.130425     14.260850
     -9.313305      8.161098      8.161098     16.322197
     -9.284692      8.202408      8.202408     16.404816
     -9.256080      7.301186      7.301186     14.602372
     -9.227468      5.862145      5.862145     11.724290
     -9.198856      4.424674      4.424674      8.849347
     -9.170243      3.399575      3.399575      6.799150
     -9.141631      2.929379      2.929379      5.858758
     -9.113019      2.914751      2.914751      5.829503
     -9.084406      3.129384      3.129384      6.258767
     -9.055794      3.334756      3.334756      6.669513
     -9.027182      3.376857      3.376857      6.753713
     -8.998569      3.273056      3.273056      6.546112
     -8.969957      3.238582      3.238582      6.477164
     -8.941345      3.573559      3.573559      7.147117
     -8.912732      4.431075      4.431075      8.862151
     -8.884120      5.634935      5.634935     11.269869
     -8.855508      6.735818      6.735818     13.471636
     -8.826896      7.313065      7.313065     14.626129
     -8.798283      7.286492      7.286492     14.572983
     -8.769671      6.954734      6.954734     13.909469
     -8.741059      6.715881      6.715881     13.431761
     -8.712446      6.727000      6.727000     13.454001
     -8.683834      6.810035      6.810035     13.620071
     -8.655222      6.665408      6.665408     13.330816
     -8.626609      6.163444      6.163444     12.326888
     -8.597997      5.433888      5.433888     10.867776
     -8.569385      4.710061      4.710061      9.420121
     -8.540773      4.144248      4.144248      8.288496
     -8.512160      3.795332      3.795332      7.590664
     -8.483548      3.734968      3.734968      7.469936
     -8.454936      4.065020      4.065020      8.130041
     -8.426323      4.781164      4.781164      9.562328
     -8.397711      5.653451      5.653451     11.306903
     -8.369099      6.306294      6.306294     12.612588
     -8.340486      6.449664      6.449664     12.899327
     -8.311874      6.039595      6.039595     12.079190
     -8.283262      5.248012      5.248012     10.496025
     -8.254649      4.343251      4.343251      8.686502
     -8.226037      3.623234      3.623234      7.246469
     -8.197425      3.389574      3.389574      6.779149
     -8.168813      3.857430      3.857430      7.714860
     -8.140200      4.993865      4.993865      9.987731
     -8.111588      6.428729      6.428729     12.857457
     -8.082976      7.593557      7.593557     15.187114
     -8.054363      8.068006      8.068006     16.136012
     -8.025751      7.886078      7.886078     15.772157
     -7.997139      7.511765      7.511765     15.023530
     -7.968526      7.447754      7.447754     14.895508
     -7.939914      7.791627      7.791627     15.583254
     -7.911302      8.139130      8.139130     16.278259
     -7.882690      7.928274      7.928274     15.856548
     -7.854077      6.911534      6.911534     13.823068
     -7.825465      5.348079      5.348079     10.696158
     -7.796853      3.799318      3.799318      7.598636
     -7.768240      2.753968      2.753968      5.507936
     -7.739628      2.375848      2.375848      4.751696
     -7.711016      2.493496      2.493496      4.986992
     -7.682403      2.776998      2.776998      5.553997
     -7.653791      2.978119      2.978119      5.956238
     -7.625179      3.094733      3.094733      6.189466
     -7.596567      3.352184      3.352184      6.704368
     -7.567954      4.011130      4.011130      8.022261
     -7.539342      5.150651      5.150651     10.301302
     -7.510730      6.595217      6.595217     13.190434
     -7.482117      8.021042      8.021042     16.042084
     -7.453505      9.128355      9.128355     18.256711
     -7.424893      9.748563      9.748563     19.497127
     -7.396280      9.853703      9.853703     19.707406
     -7.367668      9.514279      9.514279     19.028558
     -7.339056      8.846293      8.846293     17.692587
     -7.310443      7.960118      7.960118     15.920237
     -7.281831      6.925731      6.925731     13.851462
     -7.253219      5.776091      5.776091     11.552182
     -7.224607      4.551551      4.551551      9.103101
     -7.195994      3.354031      3.354031      6.708062
     -7.167382      2.364942      2.364942      4.729883
     -7.138770      1.806545      1.806545      3.613091
     -7.110157      1.866124      1.866124      3.732249
     -7.081545      2.612449      2.612449      5.224897
     -7.052933      3.930302      3.930302      7.860603
     -7.024320      5.519918      5.519918     11.039835
     -6.995708      7.008551      7.008551     14.017103
     -6.967096      8.130656      8.130656     16.261312
     -6.938484      8.829964      8.829964     17.659928
     -6.909871      9.190679      9.190679     18.381358
     -6.881259      9.295380      9.295380     18.590760
     -6.852647      9.187873      9.187873     18.375745
     -6.824034      8.964678      8.964678     17.929356
     -6.795422      8.832052      8.832052     17.664103
     -6.766810      9.000161      9.000161     18.000322
     -6.738197      9.496954      9.496954     18.993909
     -6.709585     10.104522     10.104522     20.209044
     -6.680973     10.507981     10.507981     21.015963
     -6.652361     10.531600     10.531600     21.063200
     -6.623748     10.260187     10.260187     20.520374
     -6.595136      9.984038      9.984038     19.968075
     -6.566524     10.072566     10.072566     20.145131
     -6.537911     10.867598     10.867598     21.735196
     -6.509299     12.579836     12.579836     25.159672
     -6.480687     15.190493     15.190493     30.380986
     -6.452074     18.449756     18.449756     36.899512
     -6.423462     22.000424     22.000424     44.000849
     -6.394850     25.500865     25.500865     51.001731
     -6.366237     28.652685     28.652685     57.305371
     -6.337625     31.221231     31.221231     62.442462
     -6.309013     33.137254     33.137254     66.274508
     -6.280401     34.563385     34.563385     69.126770
     -6.251788     35.787027     35.787027     71.574055
     -6.223176     37.067281     37.067281     74.134561
     -6.194564     38.675355     38.675355     77.350710
     -6.165951     41.062854     41.062854     82.125708
     -6.137339     44.801971     44.801971     89.603942
     -6.108727     50.168998     50.168998    100.337997
     -6.080114     56.751493     56.751493    113.502987
     -6.051502     63.555322     63.555322    127.110645
     -6.022890     69.583989     69.583989    139.167979
     -5.994278     74.346083     74.346083    148.692166
     -5.965665     77.832221     77.832221    155.664443
     -5.937053     80.094455     80.094455    160.188910
     -5.908441     80.976201     80.976201    161.952401
     -5.879828     80.303671     80.303671    160.607343
     -5.851216     78.263077     78.263077    156.526155
     -5.822604     75.474021     75.474021    150.948042
     -5.793991     72.652200     72.652200    145.304400
     -5.765379     70.201079     70.201079    140.402157
     -5.736767     68.071599     68.071599    136.143198
     -5.708155     65.921380     65.921380    131.842760
     -5.679542     63.393353     63.393353    126.786706
     -5.650930     60.317049     60.317049    120.634097
     -5.622318     56.729780     56.729780    113.459561
     -5.593705     52.787206     52.787206    105.574411
     -5.565093     48.738850     48.738850     97.477699
     -5.536481     44.993798     44.993798     89.987596
     -5.507868     42.072787     42.072787     84.145575
     -5.479256     40.334795     40.334795     80.669590
     -5.450644     39.710660     39.710660     79.421319
     -5.422031     39.738024     39.738024     79.476049
     -5.393419     39.826657     39.826657     79.653314
     -5.364807     39.437053     39.437053     78.874106
     -5.336195     38.106058     38.106058     76.212115
     -5.307582     35.565823     35.565823     71.131646
     -5.278970     32.027634     32.027634     64.055267
     -5.250358     28.304799     28.304799     56.609599
     -5.221745     25.484525     25.484525     50.969049
     -5.193133     24.315014     24.315014     48.630028
     -5.164521     24.756446     24.756446     49.512892
     -5.135908     26.001015     26.001015     52.002030
     -5.107296     26.950878     26.950878     53.901756
     -5.078684     26.877823     26.877823     53.755645
     -5.050072     25.860000     25.860000     51.720000
     -5.021459     24.721754     24.721754     49.443507
     -4.992847     24.567303     24.567303     49.134605
     -4.964235     26.273484     26.273484     52.546968
     -4.935622     30.232456     30.232456     60.464912
     -4.907010     36.359919     36.359919     72.719838
     -4.878398     44.224492     44.224492     88.448985
     -4.849785     53.192464     53.192464    106.384928
     -4.821173     62.572632     62.572632    125.145265
     -4.792561     71.763955     71.763955    143.527910
     -4.763948     80.347905     80.347905    160.695810
     -4.735336     88.003797     88.003797    176.007594
     -4.706724     94.203105     94.203105    188.406211
     -4.678112     97.926632     97.926632    195.853263
     -4.649499     97.860568     97.860568    195.721135
     -4.620887     93.201686     93.201686    186.403373
     -4.592275     84.478269     84.478269    168.956539
     -4.563662     73.558074     73.558074    147.116149
     -4.535050     62.726742     62.726742    125.453484
     -4.506438     53.607023     53.607023    107.214046
     -4.477825     46.741438     46.741438     93.482875
     -4.449213     41.936751     41.936751     83.873503
     -4.420601     38.836327     38.836327     77.672654
     -4.391989     37.187532     37.187532     74.375064
     -4.363376     36.710694     36.710694     73.421388
     -4.334764     36.876921     36.876921     73.753842
     -4.306152     36.979192     36.979192     73.958385
     -4.277539     36.608764     36.608764     73.217529
     -4.248927     36.195942     36.195942     72.391884
     -4.220315     37.032988     37.032988     74.065975
     -4.191702     40.547481     40.547481     81.094963
     -4.163090     47.329778     47.329778     94.659556
     -4.134478     56.729494     56.729494    113.458988
     -4.105866     67.281967     67.281967    134.563935
     -4.077253     77.429557     77.429557    154.859113
     -4.048641     85.898696     85.898696    171.797392
     -4.020029     91.684153     91.684153    183.368306
     -3.991416     94.027580     94.027580    188.055161
     -3.962804     92.593446     92.593446    185.186891
     -3.934192     87.666188     87.666188    175.332377
     -3.905579     80.138958     80.138958    160.277917
     -3.876967     71.281426     71.281426    142.562852
     -3.848355     62.429060     62.429060    124.858120
     -3.819742     54.721005     54.721005    109.442011
     -3.791130     48.935697     48.935697     97.871395
     -3.762518     45.416112     45.416112     90.832224
     -3.733906     44.058058     44.058058     88.116115
     -3.705293     44.362582     44.362582     88.725163
     -3.676681     45.584180     45.584180     91.168360
     -3.648069     46.961304     46.961304     93.922607
     -3.619456     47.923242     47.923242     95.846484
     -3.590844     48.160041     48.160041     96.320082
     -3.562232     47.555234     47.555234     95.110467
     -3.533619     46.093269     46.093269     92.186539
     -3.505007     43.846583     43.846583     87.693166
     -3.476395     41.034754     41.034754     82.069509
     -3.447783     38.050341     38.050341     76.100683
     -3.419170     35.368245     35.368245     70.736491
     -3.390558     33.371126     33.371126     66.742252
     -3.361946     32.205403     32.205403     64.410806
     -3.333333     31.766966     31.766966     63.533932
     -3.304721     31.844474     31.844474     63.688948
     -3.276109     32.347858     32.347858     64.695716
     -3.247496     33.435486     33.435486     66.870973
     -3.218884     35.361886     35.361886     70.723772
     -3.190272     38.129645     38.129645     76.259291
     -3.161660     41.324535     41.324535     82.649070
     -3.133047     44.390534     44.390534     88.781067
     -3.104435     47.067158     47.067158     94.134316
     -3.075823     49.438828     49.438828     98.877655
     -3.047210     51.499664     51.499664    102.999328
     -3.018598     52.787747     52.787747    105.575495
     -2.989986     52.608958     52.608958    105.217916
     -2.961373     50.671704     50.671704    101.343407
     -2.932761     47.486216     47.486216     94.972433
     -2.904149     44.166233     44.166233     88.332465
     -2.875536     41.861322     41.861322     83.722644
     -2.846924     41.284026     41.284026     82.568052
     -2.818312     42.580224     42.580224     85.160448
     -2.789700     45.467139     45.467139     90.934278
     -2.761087     49.431147     49.431147     98.862295
     -2.732475     53.869943     53.869943    107.739886
     -2.703863     58.196891     58.196891    116.393781
     -2.675250     61.934586     61.934586    123.869171
     -2.646638     64.762334     64.762334    129.524669
     -2.618026     66.486967     66.486967    132.973934
     -2.589413     66.974490     66.974490    133.948979
     -2.560801     66.117669     66.117669    132.235339
     -2.532189     63.881868     63.881868    127.763736
     -2.503577     60.395339     60.395339    120.790678
     -2.474964     56.008348     56.008348    112.016696
     -2.446352     51.286720     51.286720    102.573440
     -2.417740     46.943848     46.943848     93.887696
     -2.389127     43.677580     43.677580     87.355161
     -2.360515     41.889993     41.889993     83.779985
     -2.331903     41.427782     41.427782     82.855565
     -2.303290     41.600344     41.600344     83.200688
     -2.274678     41.579075     41.579075     83.158149
     -2.246066     40.944984     40.944984     81.889968
     -2.217454     39.968257     39.968257     79.936514
     -2.188841     39.383477     39.383477     78.766954
     -2.160229     39.825261     39.825261     79.650522
     -2.131617     41.351430     41.351430     82.702860
     -2.103004     43.388959     43.388959     86.777918
     -2.074392     45.101514     45.101514     90.203027
     -2.045780     45.875175     45.875175     91.750350
     -2.017167     45.576178     45.576178     91.152357
     -1.988555     44.487361     44.487361     88.974723
     -1.959943     43.133379     43.133379     86.266758
     -1.931330     42.204320     42.204320     84.408641
     -1.902718     42.499142     42.499142     84.998284
     -1.874106     44.676932     44.676932     89.353864
     -1.845494     48.842083     48.842083     97.684165
     -1.816881     54.267214     54.267214    108.534429
     -1.788269     59.536265     59.536265    119.072530
     -1.759657     63.124909     63.124909    126.249817
     -1.731044     64.127313     64.127313    128.254626
     -1.702432     62.670907     62.670907    125.341814
     -1.673820     59.739228     59.739228    119.478456
     -1.645207     56.583843     56.583843    113.167687
     -1.616595     54.175825     54.175825    108.351650
     -1.587983     52.949427     52.949427    105.898854
     -1.559371     52.779641     52.779641    105.559282
     -1.530758     53.097170     53.097170    106.194340
     -1.502146     53.125865     53.125865    106.251730
     -1.473534     52.179599     52.179599    104.359198
     -1.444921     49.899102     49.899102     99.798205
     -1.416309     46.366451     46.366451     92.732901
     -1.387697     42.065298     42.065298     84.130595
     -1.359084     37.645962     37.645962     75.291925
     -1.330472     33.585548     33.585548     67.171095
     -1.301860     30.005675     30.005675     60.011350
     -1.273247     26.803835     26.803835     53.607670
     -1.244635     23.918609     23.918609     47.837218
     -1.216023     21.419140     21.419140     42.838281
     -1.187411     19.364939     19.364939     38.729878
     -1.158798     17.674660     17.674660     35.349319
     -1.130186     16.190584     16.190584     32.381169
     -1.101574     14.839175     14.839175     29.678349
     -1.072961     13.674942     13.674942     27.349885
     -1.044349     12.772067     12.772067     25.544134
     -1.015737     12.112862     12.112862     24.225724
     -0.987124     11.581673     11.581673     23.163345
     -0.958512     11.020514     11.020514     22.041028
     -0.929900     10.272599     10.272599     20.545198
     -0.901288      9.229976      9.229976     18.459952
     -0.872675      7.914124      7.914124     15.828249
     -0.844063      6.516244      6.516244     13.032487
     -0.815451      5.305222      5.305222     10.610445
     -0.786838      4.457544      4.457544      8.915088
     -0.758226      3.971542      3.971542      7.943084
     -0.729614      3.731410      3.731410      7.462820
     -0.701001      3.618391      3.618391      7.236782
     -0.672389      3.548491      3.548491      7.096982
     -0.643777      3.440418      3.440418      6.880836
     -0.615165      3.201122      3.201122      6.402243
     -0.586552      2.769999      2.769999      5.539997
     -0.557940      2.174219      2.174219      4.348438
     -0.529328      1.530310      1.530310      3.060619
     -0.500715      0.986162      0.986162      1.972325
     -0.472103      0.653043      0.653043      1.306086
     -0.443491      0.570970      0.570970      1.141941
     -0.414878      0.706679      0.706679      1.413358
     -0.386266      0.963765      0.963765      1.927530
     -0.357654      1.205451      1.205451      2.410901
     -0.329041      1.304036      1.304036      2.608071
     -0.300429      1.202730      1.202730      2.405459
