# EIG2DOS: Utility for SIESTA to obtain the electronic density of states
#  E. Artacho, Apr 1999, A. Garcia, Apr 2012
# ------------------------------------------
# Eigenvalues read from 2mos2-1graphene.EIG
# Using smearing parameter:   0.100
# Using    700 points in energy range
# Selected bands: 1 to: 1962
# Emin, emax in file for selected band(s):    -22.9238600    143.9070300
# Nbands, Nspin, Nk   =   1962     1    13
# E_F                 =    -4.7765 eV --> (shifted to ZERO)
# Broadening          =     0.1000 eV
#
#        E            N(up)  (=)   N(down)         Ntot
    -10.000000      2.882872      2.882872      5.765744
     -9.971388      2.117091      2.117091      4.234182
     -9.942775      1.717008      1.717008      3.434016
     -9.914163      1.695989      1.695989      3.391978
     -9.885551      1.963868      1.963868      3.927736
     -9.856938      2.429195      2.429195      4.858391
     -9.828326      3.053018      3.053018      6.106035
     -9.799714      3.807839      3.807839      7.615678
     -9.771102      4.597376      4.597376      9.194752
     -9.742489      5.235108      5.235108     10.470216
     -9.713877      5.513595      5.513595     11.027191
     -9.685265      5.305552      5.305552     10.611105
     -9.656652      4.624244      4.624244      9.248489
     -9.628040      3.619555      3.619555      7.239111
     -9.599428      2.521278      2.521278      5.042557
     -9.570815      1.553483      1.553483      3.106966
     -9.542203      0.862157      0.862157      1.724315
     -9.513591      0.502613      0.502613      1.005226
     -9.484979      0.492329      0.492329      0.984658
     -9.456366      0.877702      0.877702      1.755404
     -9.427754      1.743439      1.743439      3.486879
     -9.399142      3.130164      3.130164      6.260328
     -9.370529      4.902974      4.902974      9.805947
     -9.341917      6.684311      6.684311     13.368622
     -9.313305      7.954054      7.954054     15.908109
     -9.284692      8.297745      8.297745     16.595490
     -9.256080      7.642578      7.642578     15.285156
     -9.227468      6.305236      6.305236     12.610472
     -9.198856      4.814967      4.814967      9.629934
     -9.170243      3.642143      3.642143      7.284287
     -9.141631      3.011462      3.011462      6.022924
     -9.113019      2.884098      2.884098      5.768196
     -9.084406      3.057893      3.057893      6.115785
     -9.055794      3.287444      3.287444      6.574887
     -9.027182      3.384421      3.384421      6.768842
     -8.998569      3.309095      3.309095      6.618189
     -8.969957      3.223476      3.223476      6.446952
     -8.941345      3.423678      3.423678      6.847356
     -8.912732      4.130905      4.130905      8.261811
     -8.884120      5.272147      5.272147     10.544293
     -8.855508      6.454799      6.454799     12.909598
     -8.826896      7.211916      7.211916     14.423832
     -8.798283      7.344163      7.344163     14.688325
     -8.769671      7.057285      7.057285     14.114570
     -8.741059      6.759623      6.759623     13.519246
     -8.712446      6.703260      6.703260     13.406519
     -8.683834      6.797047      6.797047     13.594094
     -8.655222      6.743966      6.743966     13.487933
     -8.626609      6.342940      6.342940     12.685881
     -8.597997      5.655848      5.655848     11.311697
     -8.569385      4.908972      4.908972      9.817945
     -8.540773      4.288678      4.288678      8.577356
     -8.512160      3.871627      3.871627      7.743253
     -8.483548      3.716470      3.716470      7.432940
     -8.454936      3.925101      3.925101      7.850202
     -8.426323      4.541868      4.541868      9.083737
     -8.397711      5.404745      5.404745     10.809490
     -8.369099      6.159786      6.159786     12.319572
     -8.340486      6.468090      6.468090     12.936180
     -8.311874      6.208908      6.208908     12.417815
     -8.283262      5.503066      5.503066     11.006132
     -8.254649      4.601448      4.601448      9.202895
     -8.226037      3.795872      3.795872      7.591743
     -8.197425      3.391691      3.391691      6.783383
     -8.168813      3.644447      3.644447      7.288893
     -8.140200      4.609576      4.609576      9.219151
     -8.111588      6.012714      6.012714     12.025428
     -8.082976      7.313641      7.313641     14.627283
     -8.054363      8.009143      8.009143     16.018286
     -8.025751      7.984756      7.984756     15.969512
     -7.997139      7.606610      7.606610     15.213219
     -7.968526      7.418098      7.418098     14.836197
     -7.939914      7.665884      7.665884     15.331768
     -7.911302      8.072973      8.072973     16.145947
     -7.882690      8.071553      8.071553     16.143107
     -7.854077      7.284438      7.284438     14.568876
     -7.825465      5.828734      5.828734     11.657468
     -7.796853      4.215272      4.215272      8.430544
     -7.768240      2.989631      2.989631      5.979261
     -7.739628      2.422126      2.422126      4.844252
     -7.711016      2.426934      2.426934      4.853868
     -7.682403      2.695722      2.695722      5.391444
     -7.653791      2.933520      2.933520      5.867039
     -7.625179      3.059137      3.059137      6.118273
     -7.596567      3.245616      3.245616      6.491231
     -7.567954      3.768343      3.768343      7.536686
     -7.539342      4.775454      4.775454      9.550908
     -7.510730      6.161357      6.161357     12.322714
     -7.482117      7.627594      7.627594     15.255188
     -7.453505      8.851773      8.851773     17.703546
     -7.424893      9.622317      9.622317     19.244634
     -7.396280      9.873461      9.873461     19.746922
     -7.367668      9.652438      9.652438     19.304876
     -7.339056      9.067537      9.067537     18.135074
     -7.310443      8.235526      8.235526     16.471052
     -7.281831      7.239807      7.239807     14.479614
     -7.253219      6.121033      6.121033     12.242066
     -7.224607      4.911338      4.911338      9.822676
     -7.195994      3.690505      3.690505      7.381011
     -7.167382      2.618379      2.618379      5.236758
     -7.138770      1.912140      1.912140      3.824280
     -7.110157      1.777996      1.777996      3.555993
     -7.081545      2.327385      2.327385      4.654771
     -7.052933      3.502775      3.502775      7.005551
     -7.024320      5.051928      5.051928     10.103855
     -6.995708      6.605663      6.605663     13.211326
     -6.967096      7.850653      7.850653     15.701305
     -6.938484      8.671014      8.671014     17.342028
     -6.909871      9.129588      9.129588     18.259176
     -6.881259      9.329510      9.329510     18.659020
     -6.852647      9.333522      9.333522     18.667044
     -6.824034      9.223208      9.223208     18.446417
     -6.795422      9.173629      9.173629     18.347258
     -6.766810      9.387750      9.387750     18.775500
     -6.738197      9.926081      9.926081     19.852161
     -6.709585     10.627472     10.627472     21.254945
     -6.680973     11.241337     11.241337     22.482673
     -6.652361     11.669172     11.669172     23.338344
     -6.623748     12.098150     12.098150     24.196300
     -6.595136     12.917596     12.917596     25.835192
     -6.566524     14.498669     14.498669     28.997338
     -6.537911     16.991462     16.991462     33.982925
     -6.509299     20.244924     20.244924     40.489848
     -6.480687     23.882733     23.882733     47.765466
     -6.452074     27.480412     27.480412     54.960824
     -6.423462     30.706305     30.706305     61.412610
     -6.394850     33.346128     33.346128     66.692256
     -6.366237     35.304001     35.304001     70.608003
     -6.337625     36.686527     36.686527     73.373053
     -6.309013     37.864407     37.864407     75.728813
     -6.280401     39.319739     39.319739     78.639478
     -6.251788     41.341315     41.341315     82.682630
     -6.223176     43.894793     43.894793     87.789586
     -6.194564     46.857341     46.857341     93.714682
     -6.165951     50.386023     50.386023    100.772047
     -6.137339     54.994062     54.994062    109.988125
     -6.108727     61.186914     61.186914    122.373828
     -6.080114     68.943233     68.943233    137.886466
     -6.051502     77.438267     77.438267    154.876535
     -6.022890     85.166140     85.166140    170.332279
     -5.994278     90.390455     90.390455    180.780909
     -5.965665     91.798249     91.798249    183.596498
     -5.937053     89.145787     89.145787    178.291574
     -5.908441     83.521001     83.521001    167.042001
     -5.879828     76.912992     76.912992    153.825984
     -5.851216     71.218929     71.218929    142.437857
     -5.822604     67.286893     67.286893    134.573787
     -5.793991     64.633016     64.633016    129.266033
     -5.765379     62.013903     62.013903    124.027806
     -5.736767     58.428750     58.428750    116.857500
     -5.708155     53.824186     53.824186    107.648372
     -5.679542     49.024553     49.024553     98.049106
     -5.650930     45.040055     45.040055     90.080111
     -5.622318     42.388405     42.388405     84.776810
     -5.593705     40.965015     40.965015     81.930031
     -5.565093     40.413484     40.413484     80.826968
     -5.536481     40.464446     40.464446     80.928892
     -5.507868     40.844132     40.844132     81.688263
     -5.479256     40.976550     40.976550     81.953101
     -5.450644     40.052047     40.052047     80.104094
     -5.422031     37.592166     37.592166     75.184331
     -5.393419     33.933729     33.933729     67.867458
     -5.364807     30.052963     30.052963     60.105926
     -5.336195     26.894249     26.894249     53.788498
     -5.307582     24.884823     24.884823     49.769645
     -5.278970     23.995776     23.995776     47.991552
     -5.250358     24.069796     24.069796     48.139591
     -5.221745     24.970323     24.970323     49.940646
     -5.193133     26.455958     26.455958     52.911915
     -5.164521     28.029966     28.029966     56.059933
     -5.135908     29.045083     29.045083     58.090167
     -5.107296     29.114129     29.114129     58.228257
     -5.078684     28.562436     28.562436     57.124872
     -5.050072     28.507415     28.507415     57.014829
     -5.021459     30.387266     30.387266     60.774532
     -4.992847     35.231702     35.231702     70.463405
     -4.964235     43.178892     43.178892     86.357783
     -4.935622     53.481927     53.481927    106.963853
     -4.907010     64.862454     64.862454    129.724908
     -4.878398     75.938884     75.938884    151.877768
     -4.849785     85.545282     85.545282    171.090564
     -4.821173     92.866030     92.866030    185.732060
     -4.792561     97.400823     97.400823    194.801646
     -4.763948     98.853655     98.853655    197.707310
     -4.735336     97.058868     97.058868    194.117736
     -4.706724     92.016179     92.016179    184.032359
     -4.678112     84.042862     84.042862    168.085724
     -4.649499     73.952918     73.952918    147.905835
     -4.620887     63.075179     63.075179    126.150358
     -4.592275     52.963973     52.963973    105.927946
     -4.563662     44.876821     44.876821     89.753641
     -4.535050     39.313784     39.313784     78.627569
     -4.506438     35.928901     35.928901     71.857802
     -4.477825     33.904195     33.904195     67.808391
     -4.449213     32.549976     32.549976     65.099952
     -4.420601     31.693759     31.693759     63.387518
     -4.391989     31.579106     31.579106     63.158212
     -4.363376     32.468175     32.468175     64.936351
     -4.334764     34.460842     34.460842     68.921685
     -4.306152     37.771563     37.771563     75.543126
     -4.277539     43.056773     43.056773     86.113545
     -4.248927     51.136344     51.136344    102.272688
     -4.220315     62.063480     62.063480    124.126961
     -4.191702     74.391863     74.391863    148.783725
     -4.163090     85.533264     85.533264    171.066527
     -4.134478     93.058404     93.058404    186.116809
     -4.105866     95.852204     95.852204    191.704409
     -4.077253     94.294211     94.294211    188.588422
     -4.048641     89.636339     89.636339    179.272678
     -4.020029     83.261099     83.261099    166.522198
     -3.991416     76.231786     76.231786    152.463572
     -3.962804     69.165129     69.165129    138.330258
     -3.934192     62.359421     62.359421    124.718843
     -3.905579     56.061344     56.061344    112.122689
     -3.876967     50.627345     50.627345    101.254690
     -3.848355     46.403334     46.403334     92.806668
     -3.819742     43.486302     43.486302     86.972604
     -3.791130     41.712366     41.712366     83.424732
     -3.762518     40.920809     40.920809     81.841617
     -3.733906     41.143553     41.143553     82.287107
     -3.705293     42.437332     42.437332     84.874665
     -3.676681     44.534841     44.534841     89.069683
     -3.648069     46.724603     46.724603     93.449205
     -3.619456     48.106940     48.106940     96.213881
     -3.590844     48.001935     48.001935     96.003869
     -3.562232     46.220450     46.220450     92.440900
     -3.533619     43.083682     43.083682     86.167364
     -3.505007     39.229318     39.229318     78.458636
     -3.476395     35.337749     35.337749     70.675498
     -3.447783     31.971023     31.971023     63.942045
     -3.419170     29.597733     29.597733     59.195466
     -3.390558     28.613830     28.613830     57.227660
     -3.361946     29.160345     29.160345     58.320690
     -3.333333     30.918538     30.918538     61.837077
     -3.304721     33.280479     33.280479     66.560959
     -3.276109     35.882840     35.882840     71.765680
     -3.247496     38.927917     38.927917     77.855834
     -3.218884     42.844888     42.844888     85.689776
     -3.190272     47.610670     47.610670     95.221340
     -3.161660     52.470101     52.470101    104.940202
     -3.133047     56.316216     56.316216    112.632433
     -3.104435     58.267637     58.267637    116.535274
     -3.075823     57.929265     57.929265    115.858529
     -3.047210     55.361088     55.361088    110.722177
     -3.018598     51.072773     51.072773    102.145547
     -2.989986     46.091764     46.091764     92.183527
     -2.961373     41.851468     41.851468     83.702937
     -2.932761     39.763106     39.763106     79.526212
     -2.904149     40.654990     40.654990     81.309981
     -2.875536     44.400866     44.400866     88.801732
     -2.846924     49.960129     49.960129     99.920258
     -2.818312     55.840621     55.840621    111.681243
     -2.789700     60.753969     60.753969    121.507939
     -2.761087     64.078460     64.078460    128.156920
     -2.732475     65.835400     65.835400    131.670800
     -2.703863     66.255356     66.255356    132.510712
     -2.675250     65.393049     65.393049    130.786099
     -2.646638     63.198006     63.198006    126.396012
     -2.618026     59.897031     59.897031    119.794061
     -2.589413     56.125937     56.125937    112.251874
     -2.560801     52.563909     52.563909    105.127818
     -2.532189     49.501067     49.501067     99.002134
     -2.503577     46.872749     46.872749     93.745497
     -2.474964     44.668140     44.668140     89.336280
     -2.446352     43.133593     43.133593     86.267187
     -2.417740     42.491868     42.491868     84.983735
     -2.389127     42.551034     42.551034     85.102068
     -2.360515     42.723120     42.723120     85.446239
     -2.331903     42.469926     42.469926     84.939852
     -2.303290     41.713428     41.713428     83.426856
     -2.274678     40.840928     40.840928     81.681855
     -2.246066     40.364904     40.364904     80.729809
     -2.217454     40.519071     40.519071     81.038143
     -2.188841     41.025801     41.025801     82.051603
     -2.160229     41.211326     41.211326     82.422651
     -2.131617     40.508583     40.508583     81.017166
     -2.103004     39.030056     39.030056     78.060113
     -2.074392     37.684599     37.684599     75.369199
     -2.045780     37.678925     37.678925     75.357850
     -2.017167     39.841048     39.841048     79.682096
     -1.988555     44.297868     44.297868     88.595737
     -1.959943     50.561015     50.561015    101.122030
     -1.931330     57.679448     57.679448    115.358897
     -1.902718     64.282680     64.282680    128.565360
     -1.874106     68.769908     68.769908    137.539816
     -1.845494     69.913286     69.913286    139.826573
     -1.816881     67.593324     67.593324    135.186648
     -1.788269     62.983627     62.983627    125.967255
     -1.759657     57.897834     57.897834    115.795669
     -1.731044     53.810285     53.810285    107.620570
     -1.702432     51.316941     51.316941    102.633883
     -1.673820     50.274793     50.274793    100.549587
     -1.645207     50.230124     50.230124    100.460247
     -1.616595     50.678377     50.678377    101.356753
     -1.587983     51.095353     51.095353    102.190705
     -1.559371     50.956206     50.956206    101.912411
     -1.530758     49.836335     49.836335     99.672670
     -1.502146     47.495130     47.495130     94.990260
     -1.473534     43.912461     43.912461     87.824922
     -1.444921     39.362603     39.362603     78.725205
     -1.416309     34.468993     34.468993     68.937986
     -1.387697     30.033308     30.033308     60.066617
     -1.359084     26.635594     26.635594     53.271187
     -1.330472     24.319913     24.319913     48.639825
     -1.301860     22.637939     22.637939     45.275878
     -1.273247     20.982598     20.982598     41.965197
     -1.244635     18.942941     18.942941     37.885882
     -1.216023     16.491821     16.491821     32.983641
     -1.187411     13.966572     13.966572     27.933144
     -1.158798     11.875516     11.875516     23.751032
     -1.130186     10.612118     10.612118     21.224235
     -1.101574     10.218253     10.218253     20.436506
     -1.072961     10.339495     10.339495     20.678989
     -1.044349     10.417991     10.417991     20.835981
     -1.015737     10.023894     10.023894     20.047788
     -0.987124      9.114598      9.114598     18.229197
     -0.958512      8.019955      8.019955     16.039910
     -0.929900      7.143419      7.143419     14.286837
     -0.901288      6.629292      6.629292     13.258584
     -0.872675      6.293473      6.293473     12.586947
     -0.844063      5.849241      5.849241     11.698482
     -0.815451      5.168170      5.168170     10.336341
     -0.786838      4.332391      4.332391      8.664781
     -0.758226      3.500271      3.500271      7.000542
     -0.729614      2.779531      2.779531      5.559063
     -0.701001      2.215364      2.215364      4.430728
     -0.672389      1.831439      1.831439      3.662878
     -0.643777      1.629899      1.629899      3.259798
     -0.615165      1.555404      1.555404      3.110808
     -0.586552      1.496108      1.496108      2.992216
     -0.557940      1.348777      1.348777      2.697555
     -0.529328      1.091522      1.091522      2.183045
     -0.500715      0.795572      0.795572      1.591144
     -0.472103      0.572760      0.572760      1.145520
     -0.443491      0.509827      0.509827      1.019654
     -0.414878      0.629184      0.629184      1.258367
     -0.386266      0.878386      0.878386      1.756771
     -0.357654      1.143751      1.143751      2.287502
     -0.329041      1.295037      1.295037      2.590073
     -0.300429      1.251963      1.251963      2.503926
