# EIG2DOS: Utility for SIESTA to obtain the electronic density of states
#  E. Artacho, Apr 1999, A. Garcia, Apr 2012
# ------------------------------------------
# Eigenvalues read from 2mos2-1graphene.EIG
# Using smearing parameter:   0.100
# Using    700 points in energy range
# Selected bands: 1 to: 1962
# Emin, emax in file for selected band(s):    -22.9702500    143.8589400
# Nbands, Nspin, Nk   =   1962     1    13
# E_F                 =    -4.8156 eV --> (shifted to ZERO)
# Broadening          =     0.1000 eV
#
#        E            N(up)  (=)   N(down)         Ntot
    -10.000000      2.660593      2.660593      5.321185
     -9.971388      1.977674      1.977674      3.955348
     -9.942775      1.678227      1.678227      3.356453
     -9.914163      1.740854      1.740854      3.481707
     -9.885551      2.065657      2.065657      4.131315
     -9.856938      2.573126      2.573126      5.146253
     -9.828326      3.234306      3.234306      6.468611
     -9.799714      4.011025      4.011025      8.022050
     -9.771102      4.782263      4.782263      9.564527
     -9.742489      5.346913      5.346913     10.693826
     -9.713877      5.508975      5.508975     11.017951
     -9.685265      5.173658      5.173658     10.347317
     -9.656652      4.391654      4.391654      8.783307
     -9.628040      3.340138      3.340138      6.680275
     -9.599428      2.255922      2.255922      4.511845
     -9.570815      1.348405      1.348405      2.696810
     -9.542203      0.738783      0.738783      1.477566
     -9.513591      0.465971      0.465971      0.931941
     -9.484979      0.549592      0.549592      1.099184
     -9.456366      1.048419      1.048419      2.096839
     -9.427754      2.047151      2.047151      4.094302
     -9.399142      3.554091      3.554091      7.108182
     -9.370529      5.373704      5.373704     10.747409
     -9.341917      7.075300      7.075300     14.150601
     -9.313305      8.138992      8.138992     16.277984
     -9.284692      8.219692      8.219692     16.439384
     -9.256080      7.348630      7.348630     14.697260
     -9.227468      5.920130      5.920130     11.840260
     -9.198856      4.473634      4.473634      8.947267
     -9.170243      3.428487      3.428487      6.856974
     -9.141631      2.937830      2.937830      5.875661
     -9.113019      2.909625      2.909625      5.819250
     -9.084406      3.120126      3.120126      6.240252
     -9.055794      3.329448      3.329448      6.658896
     -9.027182      3.378670      3.378670      6.757341
     -8.998569      3.277530      3.277530      6.555060
     -8.969957      3.234809      3.234809      6.469617
     -8.941345      3.551271      3.551271      7.102542
     -8.912732      4.389914      4.389914      8.779827
     -8.884120      5.587858      5.587858     11.175715
     -8.855508      6.701702      6.701702     13.403404
     -8.826896      7.303046      7.303046     14.606092
     -8.798283      7.295779      7.295779     14.591559
     -8.769671      6.967760      6.967760     13.935519
     -8.741059      6.720246      6.720246     13.440491
     -8.712446      6.723360      6.723360     13.446720
     -8.683834      6.809379      6.809379     13.618758
     -8.655222      6.677494      6.677494     13.354987
     -8.626609      6.188115      6.188115     12.376231
     -8.597997      5.462887      5.462887     10.925774
     -8.569385      4.735238      4.735238      9.470475
     -8.540773      4.162035      4.162035      8.324071
     -8.512160      3.803892      3.803892      7.607784
     -8.483548      3.730577      3.730577      7.461155
     -8.454936      4.044654      4.044654      8.089308
     -8.426323      4.748882      4.748882      9.497764
     -8.397711      5.621884      5.621884     11.243768
     -8.369099      6.289689      6.289689     12.579378
     -8.340486      6.454949      6.454949     12.909899
     -8.311874      6.063763      6.063763     12.127526
     -8.283262      5.282031      5.282031     10.564061
     -8.254649      4.376195      4.376195      8.752390
     -8.226037      3.643484      3.643484      7.286968
     -8.197425      3.386389      3.386389      6.772778
     -8.168813      3.826156      3.826156      7.652313
     -8.140200      4.941941      4.941941      9.883883
     -8.111588      6.375538      6.375538     12.751076
     -8.082976      7.560462      7.560462     15.120923
     -8.054363      8.063864      8.063864     16.127728
     -8.025751      7.900265      7.900265     15.800530
     -7.997139      7.522765      7.522765     15.045529
     -7.968526      7.441739      7.441739     14.883479
     -7.939914      7.774955      7.774955     15.549910
     -7.911302      8.133134      8.133134     16.266269
     -7.882690      7.951040      7.951040     15.902079
     -7.854077      6.963073      6.963073     13.926145
     -7.825465      5.410823      5.410823     10.821646
     -7.796853      3.851045      3.851045      7.702091
     -7.768240      2.781238      2.781238      5.562476
     -7.739628      2.379226      2.379226      4.758452
     -7.711016      2.483858      2.483858      4.967716
     -7.682403      2.766814      2.766814      5.533628
     -7.653791      2.972860      2.972860      5.945721
     -7.625179      3.089561      3.089561      6.179121
     -7.596567      3.336378      3.336378      6.672756
     -7.567954      3.977052      3.977052      7.954104
     -7.539342      5.100131      5.100131     10.200261
     -7.510730      6.538695      6.538695     13.077391
     -7.482117      7.971342      7.971342     15.942684
     -7.453505      9.094753      9.094753     18.189506
     -7.424893      9.734676      9.734676     19.469352
     -7.396280      9.858458      9.858458     19.716917
     -7.367668      9.533857      9.533857     19.067714
     -7.339056      8.876131      8.876131     17.752262
     -7.310443      7.996666      7.996666     15.993331
     -7.281831      6.967180      6.967180     13.934360
     -7.253219      5.821420      5.821420     11.642839
     -7.224607      4.598381      4.598381      9.196762
     -7.195994      3.396981      3.396981      6.793963
     -7.167382      2.395989      2.395989      4.791977
     -7.138770      1.817367      1.817367      3.634734
     -7.110157      1.851275      1.851275      3.702549
     -7.081545      2.572390      2.572390      5.144781
     -7.052933      3.873096      3.873096      7.746191
     -7.024320      5.459341      5.459341     10.918682
     -6.995708      6.957943      6.957943     13.915886
     -6.967096      8.096588      8.096588     16.193177
     -6.938484      8.811816      8.811816     17.623631
     -6.909871      9.186663      9.186663     18.373327
     -6.881259      9.308524      9.308524     18.617049
     -6.852647      9.226167      9.226167     18.452334
     -6.824034      9.036680      9.036680     18.073359
     -6.795422      8.942695      8.942695     17.885390
     -6.766810      9.148657      9.148657     18.297314
     -6.738197      9.676668      9.676668     19.353337
     -6.709585     10.306881     10.306881     20.613763
     -6.680973     10.732886     10.732886     21.465771
     -6.652361     10.803034     10.803034     21.606068
     -6.623748     10.642802     10.642802     21.285604
     -6.595136     10.594196     10.594196     21.188392
     -6.566524     11.070802     11.070802     22.141605
     -6.537911     12.418770     12.418770     24.837539
     -6.509299     14.789219     14.789219     29.578437
     -6.480687     18.051008     18.051008     36.102015
     -6.452074     21.826438     21.826438     43.652876
     -6.423462     25.646282     25.646282     51.292564
     -6.394850     29.102851     29.102851     58.205702
     -6.366237     31.927584     31.927584     63.855167
     -6.337625     34.030032     34.030032     68.060063
     -6.309013     35.511660     35.511660     71.023320
     -6.280401     36.611924     36.611924     73.223849
     -6.251788     37.626548     37.626548     75.253095
     -6.223176     38.908298     38.908298     77.816595
     -6.194564     40.919328     40.919328     81.838656
     -6.165951     44.149026     44.149026     88.298052
     -6.137339     48.850564     48.850564     97.701128
     -6.108727     54.831905     54.831905    109.663811
     -6.080114     61.536411     61.536411    123.072822
     -6.051502     68.329225     68.329225    136.658450
     -6.022890     74.679777     74.679777    149.359554
     -5.994278     80.078141     80.078141    160.156282
     -5.965665     83.871690     83.871690    167.743379
     -5.937053     85.361961     85.361961    170.723923
     -5.908441     84.243071     84.243071    168.486142
     -5.879828     81.016004     81.016004    162.032009
     -5.851216     76.890572     76.890572    153.781144
     -5.822604     73.116079     73.116079    146.232158
     -5.793991     70.250465     70.250465    140.500930
     -5.765379     67.965950     67.965950    135.931900
     -5.736767     65.502095     65.502095    131.004189
     -5.708155     62.328918     62.328918    124.657835
     -5.679542     58.483214     58.483214    116.966428
     -5.650930     54.401783     54.401783    108.803566
     -5.622318     50.514807     50.514807    101.029615
     -5.593705     47.010432     47.010432     94.020864
     -5.565093     43.943845     43.943845     87.887689
     -5.536481     41.476041     41.476041     82.952082
     -5.507868     39.892589     39.892589     79.785179
     -5.479256     39.335709     39.335709     78.671417
     -5.450644     39.540985     39.540985     79.081969
     -5.422031     39.855834     39.855834     79.711667
     -5.393419     39.507984     39.507984     79.015967
     -5.364807     37.927586     37.927586     75.855171
     -5.336195     35.002363     35.002363     70.004726
     -5.307582     31.192881     31.192881     62.385763
     -5.278970     27.406704     27.406704     54.813407
     -5.250358     24.627427     24.627427     49.254854
     -5.221745     23.484504     23.484504     46.969007
     -5.193133     23.989342     23.989342     47.978685
     -5.164521     25.536463     25.536463     51.072925
     -5.135908     27.162010     27.162010     54.324019
     -5.107296     27.993310     27.993310     55.986620
     -5.078684     27.711747     27.711747     55.423494
     -5.050072     26.762298     26.762298     53.524596
     -5.021459     26.164785     26.164785     52.329570
     -4.992847     27.062577     27.062577     54.125154
     -4.964235     30.292559     30.292559     60.585118
     -4.935622     36.149554     36.149554     72.299108
     -4.907010     44.346307     44.346307     88.692614
     -4.878398     54.130285     54.130285    108.260571
     -4.849785     64.539011     64.539011    129.078023
     -4.821173     74.702129     74.702129    149.404257
     -4.792561     83.989479     83.989479    167.978959
     -4.763948     91.871098     91.871098    183.742195
     -4.735336     97.623022     97.623022    195.246044
     -4.706724    100.222561    100.222561    200.445123
     -4.678112     98.678787     98.678787    197.357573
     -4.649499     92.672101     92.672101    185.344201
     -4.620887     83.029157     83.029157    166.058315
     -4.592275     71.582446     71.582446    143.164891
     -4.563662     60.422977     60.422977    120.845955
     -4.535050     51.060664     51.060664    102.121327
     -4.506438     44.059730     44.059730     88.119460
     -4.477825     39.271911     39.271911     78.543822
     -4.449213     36.314242     36.314242     72.628485
     -4.420601     34.863313     34.863313     69.726625
     -4.391989     34.626697     34.626697     69.253393
     -4.363376     35.167919     35.167919     70.335838
     -4.334764     35.881651     35.881651     71.763302
     -4.306152     36.304610     36.304610     72.609221
     -4.277539     36.625569     36.625569     73.251139
     -4.248927     37.921889     37.921889     75.843778
     -4.220315     41.708563     41.708563     83.417127
     -4.191702     48.962153     48.962153     97.924305
     -4.163090     59.338009     59.338009    118.676018
     -4.134478     71.183260     71.183260    142.366521
     -4.105866     82.259443     82.259443    164.518886
     -4.077253     90.590472     90.590472    181.180944
     -4.048641     94.982293     94.982293    189.964586
     -4.020029     95.159766     95.159766    190.319531
     -3.991416     91.636719     91.636719    183.273439
     -3.962804     85.405084     85.405084    170.810169
     -3.934192     77.567517     77.567517    155.135034
     -3.905579     69.109087     69.109087    138.218174
     -3.876967     60.887206     60.887206    121.774412
     -3.848355     53.682984     53.682984    107.365969
     -3.819742     48.123869     48.123869     96.247739
     -3.791130     44.514861     44.514861     89.029722
     -3.762518     42.772580     42.772580     85.545161
     -3.733906     42.537597     42.537597     85.075193
     -3.705293     43.352455     43.352455     86.704909
     -3.676681     44.774814     44.774814     89.549627
     -3.648069     46.390447     46.390447     92.780893
     -3.619456     47.758225     47.758225     95.516451
     -3.590844     48.371258     48.371258     96.742516
     -3.562232     47.757712     47.757712     95.515424
     -3.533619     45.735982     45.735982     91.471964
     -3.505007     42.607296     42.607296     85.214591
     -3.476395     39.041680     39.041680     78.083360
     -3.447783     35.721418     35.721418     71.442836
     -3.419170     33.068008     33.068008     66.136016
     -3.390558     31.244499     31.244499     62.488998
     -3.361946     30.303928     30.303928     60.607856
     -3.333333     30.266389     30.266389     60.532779
     -3.304721     31.094929     31.094929     62.189857
     -3.276109     32.693977     32.693977     65.387954
     -3.247496     34.973199     34.973199     69.946399
     -3.218884     37.869098     37.869098     75.738197
     -3.190272     41.262886     41.262886     82.525772
     -3.161660     44.908898     44.908898     89.817796
     -3.133047     48.480228     48.480228     96.960457
     -3.104435     51.637978     51.637978    103.275956
     -3.075823     53.992005     53.992005    107.984010
     -3.047210     55.045525     55.045525    110.091050
     -3.018598     54.337150     54.337150    108.674300
     -2.989986     51.781109     51.781109    103.562217
     -2.961373     47.935055     47.935055     95.870110
     -2.932761     43.933374     43.933374     87.866747
     -2.904149     41.077938     41.077938     82.155877
     -2.875536     40.325913     40.325913     80.651825
     -2.846924     41.969582     41.969582     83.939164
     -2.818312     45.636156     45.636156     91.272312
     -2.789700     50.508136     50.508136    101.016273
     -2.761087     55.604888     55.604888    111.209776
     -2.732475     60.060869     60.060869    120.121739
     -2.703863     63.358659     63.358659    126.717317
     -2.675250     65.395232     65.395232    130.790464
     -2.646638     66.305455     66.305455    132.610909
     -2.618026     66.184241     66.184241    132.368482
     -2.589413     64.961346     64.961346    129.922692
     -2.560801     62.518585     62.518585    125.037170
     -2.532189     58.905743     58.905743    117.811487
     -2.503577     54.475227     54.475227    108.950453
     -2.474964     49.872633     49.872633     99.745266
     -2.446352     45.887816     45.887816     91.775632
     -2.417740     43.179184     43.179184     86.358367
     -2.389127     41.961987     41.961987     83.923973
     -2.360515     41.862326     41.862326     83.724651
     -2.331903     42.102358     42.102358     84.204717
     -2.303290     41.958984     41.958984     83.917968
     -2.274678     41.205419     41.205419     82.410838
     -2.246066     40.217760     40.217760     80.435519
     -2.217454     39.661562     39.661562     79.323124
     -2.188841     39.986116     39.986116     79.972232
     -2.160229     41.086443     41.086443     82.172886
     -2.131617     42.363773     42.363773     84.727545
     -2.103004     43.142768     43.142768     86.285537
     -2.074392     43.144695     43.144695     86.289390
     -2.045780     42.641991     42.641991     85.283983
     -2.017167     42.181042     42.181042     84.362083
     -1.988555     42.195918     42.195918     84.391836
     -1.959943     42.941228     42.941228     85.882456
     -1.931330     44.728846     44.728846     89.457692
     -1.902718     47.987919     47.987919     95.975837
     -1.874106     52.835117     52.835117    105.670234
     -1.845494     58.508756     58.508756    117.017512
     -1.816881     63.377083     63.377083    126.754167
     -1.788269     65.773446     65.773446    131.546892
     -1.759657     65.055941     65.055941    130.111882
     -1.731044     61.972570     61.972570    123.945141
     -1.702432     58.051622     58.051622    116.103244
     -1.673820     54.650878     54.650878    109.301756
     -1.645207     52.458293     52.458293    104.916587
     -1.616595     51.569164     51.569164    103.138328
     -1.587983     51.708613     51.708613    103.417227
     -1.559371     52.325223     52.325223    104.650446
     -1.530758     52.683849     52.683849    105.367698
     -1.502146     52.091253     52.091253    104.182507
     -1.473534     50.133564     50.133564    100.267128
     -1.444921     46.773548     46.773548     93.547096
     -1.416309     42.332673     42.332673     84.665346
     -1.387697     37.419321     37.419321     74.838643
     -1.359084     32.755216     32.755216     65.510432
     -1.330472     28.886401     28.886401     57.772803
     -1.301860     25.950835     25.950835     51.901669
     -1.273247     23.698638     23.698638     47.397276
     -1.244635     21.731709     21.731709     43.463418
     -1.216023     19.747300     19.747300     39.494601
     -1.187411     17.648447     17.648447     35.296895
     -1.158798     15.547184     15.547184     31.094368
     -1.130186     13.705571     13.705571     27.411143
     -1.101574     12.398402     12.398402     24.796804
     -1.072961     11.722157     11.722157     23.444314
     -1.044349     11.487676     11.487676     22.975353
     -1.015737     11.318416     11.318416     22.636831
     -0.987124     10.888389     10.888389     21.776779
     -0.958512     10.093966     10.093966     20.187931
     -0.929900      9.039143      9.039143     18.078287
     -0.901288      7.903563      7.903563     15.807125
     -0.872675      6.829866      6.829866     13.659732
     -0.844063      5.888633      5.888633     11.777266
     -0.815451      5.095531      5.095531     10.191063
     -0.786838      4.441789      4.441789      8.883578
     -0.758226      3.916564      3.916564      7.833128
     -0.729614      3.510836      3.510836      7.021673
     -0.701001      3.205916      3.205916      6.411831
     -0.672389      2.963960      2.963960      5.927919
     -0.643777      2.732092      2.732092      5.464185
     -0.615165      2.455910      2.455910      4.911820
     -0.586552      2.098114      2.098114      4.196228
     -0.557940      1.661204      1.661204      3.322408
     -0.529328      1.200193      1.200193      2.400386
     -0.500715      0.806522      0.806522      1.613045
     -0.472103      0.568315      0.568315      1.136631
     -0.443491      0.532919      0.532919      1.065837
     -0.414878      0.686666      0.686666      1.373331
     -0.386266      0.950615      0.950615      1.901230
     -0.357654      1.197954      1.197954      2.395909
     -0.329041      1.303726      1.303726      2.607452
     -0.300429      1.209361      1.209361      2.418723
