# EIG2DOS: Utility for SIESTA to obtain the electronic density of states
#  E. Artacho, Apr 1999, A. Garcia, Apr 2012
# ------------------------------------------
# Eigenvalues read from 2mos2-1graphene.EIG
# Using smearing parameter:   0.100
# Using    700 points in energy range
# Selected bands: 1 to: 1962
# Emin, emax in file for selected band(s):    -23.0448700    143.7818400
# Nbands, Nspin, Nk   =   1962     1    13
# E_F                 =    -4.8887 eV --> (shifted to ZERO)
# Broadening          =     0.1000 eV
#
#        E            N(up)  (=)   N(down)         Ntot
    -10.000000      2.617164      2.617164      5.234327
     -9.971388      1.952337      1.952337      3.904674
     -9.942775      1.673310      1.673310      3.346619
     -9.914163      1.752174      1.752174      3.504348
     -9.885551      2.087917      2.087917      4.175833
     -9.856938      2.603783      2.603783      5.207565
     -9.828326      3.272370      3.272370      6.544741
     -9.799714      4.052652      4.052652      8.105305
     -9.771102      4.818510      4.818510      9.637019
     -9.742489      5.366554      5.366554     10.733107
     -9.713877      5.503956      5.503956     11.007912
     -9.685265      5.142967      5.142967     10.285934
     -9.656652      4.341797      4.341797      8.683594
     -9.628040      3.282664      3.282664      6.565328
     -9.599428      2.203080      2.203080      4.406159
     -9.570815      1.308896      1.308896      2.617791
     -9.542203      0.716255      0.716255      1.432511
     -9.513591      0.461248      0.461248      0.922497
     -9.484979      0.564471      0.564471      1.128941
     -9.456366      1.087185      1.087185      2.174370
     -9.427754      2.113287      2.113287      4.226574
     -9.399142      3.643382      3.643382      7.286764
     -9.370529      5.469170      5.469170     10.938340
     -9.341917      7.150204      7.150204     14.300408
     -9.313305      8.168829      8.168829     16.337658
     -9.284692      8.195904      8.195904     16.391808
     -9.256080      7.283920      7.283920     14.567839
     -9.227468      5.841289      5.841289     11.682578
     -9.198856      4.407286      4.407286      8.814571
     -9.170243      3.389544      3.389544      6.779089
     -9.141631      2.926737      2.926737      5.853474
     -9.113019      2.916915      2.916915      5.833830
     -9.084406      3.132879      3.132879      6.265758
     -9.055794      3.336641      3.336641      6.673281
     -9.027182      3.376017      3.376017      6.752035
     -8.998569      3.271200      3.271200      6.542400
     -8.969957      3.239757      3.239757      6.479513
     -8.941345      3.581512      3.581512      7.163024
     -8.912732      4.445881      4.445881      8.891761
     -8.884120      5.651824      5.651824     11.303648
     -8.855508      6.747960      6.747960     13.495920
     -8.826896      7.316525      7.316525     14.633050
     -8.798283      7.283101      7.283101     14.566202
     -8.769671      6.950118      6.950118     13.900236
     -8.741059      6.714405      6.714405     13.428811
     -8.712446      6.728308      6.728308     13.456616
     -8.683834      6.810137      6.810137     13.620274
     -8.655222      6.660875      6.660875     13.321751
     -8.626609      6.154448      6.154448     12.308896
     -8.597997      5.423439      5.423439     10.846878
     -8.569385      4.701036      4.701036      9.402072
     -8.540773      4.137861      4.137861      8.275722
     -8.512160      3.792228      3.792228      7.584456
     -8.483548      3.736508      3.736508      7.473016
     -8.454936      4.072293      4.072293      8.144586
     -8.426323      4.792678      4.792678      9.585356
     -8.397711      5.664659      5.664659     11.329318
     -8.369099      6.312129      6.312129     12.624258
     -8.340486      6.447708      6.447708     12.895417
     -8.311874      6.030946      6.030946     12.061891
     -8.283262      5.235867      5.235867     10.471735
     -8.254649      4.331491      4.331491      8.662982
     -8.226037      3.616033      3.616033      7.232067
     -8.197425      3.390796      3.390796      6.781592
     -8.168813      3.868700      3.868700      7.737399
     -8.140200      5.012426      5.012426     10.024851
     -8.111588      6.447577      6.447577     12.895154
     -8.082976      7.605102      7.605102     15.210205
     -8.054363      8.069246      8.069246     16.138491
     -8.025751      7.880968      7.880968     15.761936
     -7.997139      7.508011      7.508011     15.016022
     -7.968526      7.450142      7.450142     14.900284
     -7.939914      7.797684      7.797684     15.595367
     -7.911302      8.141145      8.141145     16.282290
     -7.882690      7.919874      7.919874     15.839749
     -7.854077      6.892889      6.892889     13.785777
     -7.825465      5.325588      5.325588     10.651177
     -7.796853      3.780925      3.780925      7.561849
     -7.768240      2.744385      2.744385      5.488771
     -7.739628      2.374766      2.374766      4.749531
     -7.711016      2.496962      2.496962      4.993925
     -7.682403      2.780565      2.780565      5.561130
     -7.653791      2.979894      2.979894      5.959788
     -7.625179      3.096509      3.096509      6.193018
     -7.596567      3.357805      3.357805      6.715609
     -7.567954      4.023281      4.023281      8.046562
     -7.539342      5.168628      5.168628     10.337256
     -7.510730      6.615275      6.615275     13.230550
     -7.482117      8.038622      8.038622     16.077243
     -7.453505      9.140172      9.140172     18.280345
     -7.424893      9.753348      9.753348     19.506696
     -7.396280      9.851858      9.851858     19.703717
     -7.367668      9.507189      9.507189     19.014378
     -7.339056      8.835595      8.835595     17.671190
     -7.310443      7.947069      7.947069     15.894139
     -7.281831      6.910964      6.910964     13.821927
     -7.253219      5.759972      5.759972     11.519945
     -7.224607      4.534946      4.534946      9.069891
     -7.195994      3.338870      3.338870      6.677741
     -7.167382      2.354067      2.354067      4.708133
     -7.138770      1.802866      1.802866      3.605732
     -7.110157      1.871501      1.871501      3.743001
     -7.081545      2.626635      2.626635      5.253270
     -7.052933      3.950386      3.950386      7.900772
     -7.024320      5.541030      5.541030     11.082061
     -6.995708      7.026040      7.026040     14.052080
     -6.967096      8.142200      8.142200     16.284401
     -6.938484      8.835393      8.835393     17.670785
     -6.909871      9.189102      9.189102     18.378203
     -6.881259      9.281616      9.281616     18.563233
     -6.852647      9.150254      9.150254     18.300507
     -6.824034      8.885233      8.885233     17.770466
     -6.795422      8.690598      8.690598     17.381196
     -6.766810      8.783887      8.783887     17.567774
     -6.738197      9.211836      9.211836     18.423672
     -6.709585      9.777592      9.777592     19.555184
     -6.680973     10.171894     10.171894     20.343789
     -6.652361     10.196697     10.196697     20.393395
     -6.623748      9.886988      9.886988     19.773977
     -6.595136      9.462714      9.462714     18.925429
     -6.566524      9.217232      9.217232     18.434463
     -6.537911      9.450274      9.450274     18.900548
     -6.509299     10.415247     10.415247     20.830494
     -6.480687     12.212738     12.212738     24.425477
     -6.452074     14.688996     14.688996     29.377993
     -6.423462     17.479207     17.479207     34.958414
     -6.394850     20.215977     20.215977     40.431955
     -6.366237     22.732362     22.732362     45.464724
     -6.337625     25.066733     25.066733     50.133466
     -6.309013     27.280408     27.280408     54.560816
     -6.280401     29.318388     29.318388     58.636776
     -6.251788     31.106424     31.106424     62.212848
     -6.223176     32.776552     32.776552     65.553104
     -6.194564     34.705725     34.705725     69.411450
     -6.165951     37.264572     37.264572     74.529144
     -6.137339     40.575878     40.575878     81.151757
     -6.108727     44.583934     44.583934     89.167868
     -6.080114     49.266956     49.266956     98.533911
     -6.051502     54.580215     54.580215    109.160429
     -6.022890     60.142630     60.142630    120.285260
     -5.994278     65.180040     65.180040    130.360080
     -5.965665     68.998167     68.998167    137.996334
     -5.937053     71.523277     71.523277    143.046553
     -5.908441     73.251148     73.251148    146.502297
     -5.879828     74.616740     74.616740    149.233480
     -5.851216     75.486068     75.486068    150.972136
     -5.822604     75.325148     75.325148    150.650296
     -5.793991     73.847247     73.847247    147.694494
     -5.765379     71.467091     71.467091    142.934183
     -5.736767     69.124135     69.124135    138.248269
     -5.708155     67.625533     67.625533    135.251066
     -5.679542     67.051078     67.051078    134.102156
     -5.650930     66.692831     66.692831    133.385663
     -5.622318     65.559750     65.559750    131.119500
     -5.593705     63.030189     63.030189    126.060379
     -5.565093     59.175767     59.175767    118.351534
     -5.536481     54.625142     54.625142    109.250283
     -5.507868     50.200531     50.200531    100.401062
     -5.479256     46.605300     46.605300     93.210601
     -5.450644     44.229296     44.229296     88.458592
     -5.422031     43.008319     43.008319     86.016637
     -5.393419     42.394276     42.394276     84.788553
     -5.364807     41.604643     41.604643     83.209286
     -5.336195     40.105791     40.105791     80.211582
     -5.307582     37.939740     37.939740     75.879480
     -5.278970     35.563456     35.563456     71.126911
     -5.250358     33.386610     33.386610     66.773221
     -5.221745     31.524163     31.524163     63.048325
     -5.193133     29.956201     29.956201     59.912402
     -5.164521     28.743559     28.743559     57.487119
     -5.135908     27.939009     27.939009     55.878018
     -5.107296     27.335964     27.335964     54.671929
     -5.078684     26.466916     26.466916     52.933831
     -5.050072     24.960072     24.960072     49.920145
     -5.021459     22.949163     22.949163     45.898326
     -4.992847     21.188819     21.188819     42.377638
     -4.964235     20.779193     20.779193     41.558387
     -4.935622     22.651928     22.651928     45.303857
     -4.907010     27.099909     27.099909     54.199818
     -4.878398     33.629280     33.629280     67.258561
     -4.849785     41.235369     41.235369     82.470737
     -4.821173     48.916596     48.916596     97.833192
     -4.792561     56.071956     56.071956    112.143912
     -4.763948     62.562935     62.562935    125.125871
     -4.735336     68.536479     68.536479    137.072958
     -4.706724     74.239267     74.239267    148.478535
     -4.678112     79.855960     79.855960    159.711920
     -4.649499     85.227796     85.227796    170.455592
     -4.620887     89.537965     89.537965    179.075931
     -4.592275     91.397650     91.397650    182.795300
     -4.563662     89.572043     89.572043    179.144086
     -4.535050     83.894042     83.894042    167.788083
     -4.506438     75.572990     75.572990    151.145980
     -4.477825     66.596838     66.596838    133.193676
     -4.449213     58.708672     58.708672    117.417344
     -4.420601     52.704969     52.704969    105.409939
     -4.391989     48.415087     48.415087     96.830174
     -4.363376     45.175925     45.175925     90.351850
     -4.334764     42.374298     42.374298     84.748596
     -4.306152     39.741047     39.741047     79.482094
     -4.277539     37.348414     37.348414     74.696827
     -4.248927     35.487521     35.487521     70.975042
     -4.220315     34.620117     34.620117     69.240233
     -4.191702     35.368821     35.368821     70.737642
     -4.163090     38.308070     38.308070     76.616140
     -4.134478     43.513747     43.513747     87.027493
     -4.105866     50.286958     50.286958    100.573916
     -4.077253     57.507293     57.507293    115.014586
     -4.048641     64.407990     64.407990    128.815980
     -4.020029     70.959040     70.959040    141.918080
     -3.991416     77.390591     77.390591    154.781182
     -3.962804     83.367580     83.367580    166.735159
     -3.934192     87.733842     87.733842    175.467685
     -3.905579     89.114392     89.114392    178.228783
     -3.876967     86.797291     86.797291    173.594582
     -3.848355     81.152604     81.152604    162.305209
     -3.819742     73.401169     73.401169    146.802337
     -3.791130     65.094151     65.094151    130.188302
     -3.762518     57.681082     57.681082    115.362165
     -3.733906     52.230566     52.230566    104.461132
     -3.705293     49.216016     49.216016     98.432033
     -3.676681     48.392501     48.392501     96.785002
     -3.648069     48.892865     48.892865     97.785731
     -3.619456     49.584574     49.584574     99.169148
     -3.590844     49.549529     49.549529     99.099057
     -3.562232     48.441368     48.441368     96.882737
     -3.533619     46.516096     46.516096     93.032193
     -3.505007     44.319567     44.319567     88.639135
     -3.476395     42.258391     42.258391     84.516782
     -3.447783     40.386052     40.386052     80.772104
     -3.419170     38.556172     38.556172     77.112345
     -3.390558     36.751824     36.751824     73.503648
     -3.361946     35.234516     35.234516     70.469032
     -3.333333     34.354805     34.354805     68.709609
     -3.304721     34.223426     34.223426     68.446851
     -3.276109     34.587041     34.587041     69.174083
     -3.247496     35.048570     35.048570     70.097141
     -3.218884     35.430003     35.430003     70.860005
     -3.190272     35.928355     35.928355     71.856710
     -3.161660     36.907179     36.907179     73.814359
     -3.133047     38.523233     38.523233     77.046465
     -3.104435     40.562874     40.562874     81.125748
     -3.075823     42.651919     42.651919     85.303839
     -3.047210     44.590575     44.590575     89.181150
     -3.018598     46.406964     46.406964     92.813928
     -2.989986     48.053191     48.053191     96.106382
     -2.961373     49.141939     49.141939     98.283878
     -2.932761     49.137095     49.137095     98.274190
     -2.904149     47.876836     47.876836     95.753671
     -2.875536     45.865571     45.865571     91.731142
     -2.846924     44.006489     44.006489     88.012978
     -2.818312     43.059098     43.059098     86.118197
     -2.789700     43.318850     43.318850     86.637701
     -2.761087     44.669907     44.669907     89.339815
     -2.732475     46.820399     46.820399     93.640799
     -2.703863     49.532061     49.532061     99.064123
     -2.675250     52.745707     52.745707    105.491413
     -2.646638     56.486507     56.486507    112.973014
     -2.618026     60.539344     60.539344    121.078689
     -2.589413     64.198801     64.198801    128.397603
     -2.560801     66.489088     66.489088    132.978175
     -2.532189     66.801081     66.801081    133.602163
     -2.503577     65.350372     65.350372    130.700744
     -2.474964     62.942469     62.942469    125.884938
     -2.446352     60.240870     60.240870    120.481740
     -2.417740     57.277370     57.277370    114.554740
     -2.389127     53.697169     53.697169    107.394337
     -2.360515     49.461517     49.461517     98.923033
     -2.331903     45.254144     45.254144     90.508288
     -2.303290     42.134262     42.134262     84.268524
     -2.274678     40.731384     40.731384     81.462768
     -2.246066     40.728398     40.728398     81.456796
     -2.217454     41.111439     41.111439     82.222879
     -2.188841     40.982896     40.982896     81.965792
     -2.160229     40.274709     40.274709     80.549419
     -2.131617     39.803241     39.803241     79.606482
     -2.103004     40.620601     40.620601     81.241202
     -2.074392     43.132598     43.132598     86.265195
     -2.045780     46.620463     46.620463     93.240927
     -2.017167     49.525529     49.525529     99.051058
     -1.988555     50.333978     50.333978    100.667957
     -1.959943     48.497256     48.497256     96.994513
     -1.931330     44.808316     44.808316     89.616633
     -1.902718     41.004190     41.004190     82.008381
     -1.874106     38.838105     38.838105     77.676211
     -1.845494     39.194159     39.194159     78.388318
     -1.816881     41.808514     41.808514     83.617027
     -1.788269     45.735374     45.735374     91.470748
     -1.759657     50.090961     50.090961    100.181923
     -1.731044     54.391898     54.391898    108.783795
     -1.702432     58.291811     58.291811    116.583621
     -1.673820     61.218158     61.218158    122.436317
     -1.645207     62.492482     62.492482    124.984965
     -1.616595     61.879846     61.879846    123.759692
     -1.587983     59.938385     59.938385    119.876769
     -1.559371     57.710230     57.710230    115.420460
     -1.530758     55.995572     55.995572    111.991145
     -1.502146     54.878568     54.878568    109.757137
     -1.473534     53.873917     53.873917    107.747833
     -1.444921     52.427261     52.427261    104.854522
     -1.416309     50.267445     50.267445    100.534889
     -1.387697     47.440250     47.440250     94.880500
     -1.359084     44.201746     44.201746     88.403491
     -1.330472     40.893080     40.893080     81.786160
     -1.301860     37.744634     37.744634     75.489268
     -1.273247     34.680359     34.680359     69.360717
     -1.244635     31.390379     31.390379     62.780757
     -1.216023     27.729354     27.729354     55.458708
     -1.187411     24.046629     24.046629     48.093259
     -1.158798     21.026170     21.026170     42.052340
     -1.130186     19.138647     19.138647     38.277294
     -1.101574     18.242620     18.242620     36.485241
     -1.072961     17.706974     17.706974     35.413947
     -1.044349     16.907691     16.907691     33.815382
     -1.015737     15.647716     15.647716     31.295432
     -0.987124     14.182172     14.182172     28.364343
     -0.958512     12.893777     12.893777     25.787553
     -0.929900     11.929832     11.929832     23.859665
     -0.901288     11.096851     11.096851     22.193702
     -0.872675     10.059993     10.059993     20.119986
     -0.844063      8.643403      8.643403     17.286806
     -0.815451      6.981453      6.981453     13.962907
     -0.786838      5.427813      5.427813     10.855625
     -0.758226      4.323019      4.323019      8.646039
     -0.729614      3.803235      3.803235      7.606470
     -0.701001      3.768636      3.768636      7.537273
     -0.672389      3.988419      3.988419      7.976837
     -0.643777      4.224547      4.224547      8.449095
     -0.615165      4.290207      4.290207      8.580414
     -0.586552      4.063641      4.063641      8.127281
     -0.557940      3.514509      3.514509      7.029018
     -0.529328      2.735017      2.735017      5.470034
     -0.500715      1.918117      1.918117      3.836233
     -0.472103      1.271122      1.271122      2.542243
     -0.443491      0.922740      0.922740      1.845480
     -0.414878      0.879558      0.879558      1.759116
     -0.386266      1.037885      1.037885      2.075769
     -0.357654      1.232971      1.232971      2.465942
     -0.329041      1.311512      1.311512      2.623025
     -0.300429      1.201795      1.201795      2.403591
