# EIG2DOS: Utility for SIESTA to obtain the electronic density of states
#  E. Artacho, Apr 1999, A. Garcia, Apr 2012
# ------------------------------------------
# Eigenvalues read from 3mos2-1graphene.EIG
# Using smearing parameter:   0.100
# Using    700 points in energy range
# Selected bands: 1 to: 2618
# Emin, emax in file for selected band(s):    -22.5827000    143.1566700
# Nbands, Nspin, Nk   =   2618     1    13
# E_F                 =    -4.7028 eV --> (shifted to ZERO)
# Broadening          =     0.1000 eV
#
#        E            N(up)  (=)   N(down)         Ntot
    -10.000000      2.297296      2.297296      4.594591
     -9.971388      3.171900      3.171900      6.343800
     -9.942775      4.036553      4.036553      8.073106
     -9.914163      4.759674      4.759674      9.519349
     -9.885551      5.273461      5.273461     10.546921
     -9.856938      5.517411      5.517411     11.034822
     -9.828326      5.409089      5.409089     10.818178
     -9.799714      4.897004      4.897004      9.794009
     -9.771102      4.049113      4.049113      8.098227
     -9.742489      3.076757      3.076757      6.153515
     -9.713877      2.250669      2.250669      4.501338
     -9.685265      1.767852      1.767852      3.535704
     -9.656652      1.673003      1.673003      3.346006
     -9.628040      1.889241      1.889241      3.778482
     -9.599428      2.318022      2.318022      4.636044
     -9.570815      2.909976      2.909976      5.819952
     -9.542203      3.642232      3.642232      7.284465
     -9.513591      4.437817      4.437817      8.875634
     -9.484979      5.125764      5.125764     10.251528
     -9.456366      5.494144      5.494144     10.988288
     -9.427754      5.391655      5.391655     10.783310
     -9.399142      4.800440      4.800440      9.600880
     -9.370529      3.845257      3.845257      7.690514
     -9.341917      2.746073      2.746073      5.492146
     -9.313305      1.735529      1.735529      3.471058
     -9.284692      0.979446      0.979446      1.958891
     -9.256080      0.549378      0.549378      1.098756
     -9.227468      0.464531      0.464531      0.929062
     -9.198856      0.761713      0.761713      1.523426
     -9.170243      1.521434      1.521434      3.042868
     -9.141631      2.803889      2.803889      5.607777
     -9.113019      4.520019      4.520019      9.040037
     -9.084406      6.340549      6.340549     12.681097
     -9.055794      7.757748      7.757748     15.515496
     -9.027182      8.312510      8.312510     16.625021
     -8.998569      7.849438      7.849438     15.698876
     -8.969957      6.612778      6.612778     13.225555
     -8.941345      5.109813      5.109813     10.219626
     -8.912732      3.843450      3.843450      7.686900
     -8.884120      3.096260      3.096260      6.192520
     -8.855508      2.878007      2.878007      5.756014
     -8.826896      3.009889      3.009889      6.019778
     -8.798283      3.246597      3.246597      6.493194
     -8.769671      3.380301      3.380301      6.760601
     -8.741059      3.333954      3.333954      6.667907
     -8.712446      3.228475      3.228475      6.456950
     -8.683834      3.345770      3.345770      6.691540
     -8.655222      3.943121      3.943121      7.886242
     -8.626609      5.019004      5.019004     10.038009
     -8.597997      6.234351      6.234351     12.468703
     -8.569385      7.108232      7.108232     14.216464
     -8.540773      7.364479      7.364479     14.728958
     -8.512160      7.131870      7.131870     14.263740
     -8.483548      6.806266      6.806266     13.612532
     -8.454936      6.696762      6.696762     13.393523
     -8.426323      6.781269      6.781269     13.562539
     -8.397711      6.781184      6.781184     13.562368
     -8.369099      6.454153      6.454153     12.908305
     -8.340486      5.808658      5.808658     11.617316
     -8.311874      5.054833      5.054833     10.109666
     -8.283262      4.399586      4.399586      8.799173
     -8.254649      3.937609      3.937609      7.875218
     -8.226037      3.721895      3.721895      7.443790
     -8.197425      3.848516      3.848516      7.697032
     -8.168813      4.387490      4.387490      8.774980
     -8.140200      5.225188      5.225188     10.450376
     -8.111588      6.034214      6.034214     12.068427
     -8.082976      6.452219      6.452219     12.904438
     -8.054363      6.305344      6.305344     12.610687
     -8.025751      5.672312      5.672312     11.344624
     -7.997139      4.787500      4.787500      9.575000
     -7.968526      3.937940      3.937940      7.875880
     -7.939914      3.428812      3.428812      6.857624
     -7.911302      3.535691      3.535691      7.071382
     -7.882690      4.368051      4.368051      8.736103
     -7.854077      5.720886      5.720886     11.441771
     -7.825465      7.089355      7.089355     14.178709
     -7.796853      7.931517      7.931517     15.863035
     -7.768240      8.035094      8.035094     16.070188
     -7.739628      7.682436      7.682436     15.364873
     -7.711016      7.420094      7.420094     14.840187
     -7.682403      7.586228      7.586228     15.172455
     -7.653791      8.004676      8.004676     16.009353
     -7.625179      8.129088      8.129088     16.258176
     -7.596567      7.507970      7.507970     15.015940
     -7.567954      6.154035      6.154035     12.308070
     -7.539342      4.524059      4.524059      9.048118
     -7.510730      3.187250      3.187250      6.374500
     -7.482117      2.483947      2.483947      4.967893
     -7.453505      2.394593      2.394593      4.789185
     -7.424893      2.637822      2.637822      5.275644
     -7.396280      2.896727      2.896727      5.793453
     -7.367668      3.037750      3.037750      6.075500
     -7.339056      3.190039      3.190039      6.380078
     -7.310443      3.627193      3.627193      7.254386
     -7.281831      4.538339      4.538339      9.076678
     -7.253219      5.869168      5.869168     11.738336
     -7.224607      7.347244      7.347244     14.694488
     -7.195994      8.641295      8.641295     17.282591
     -7.167382      9.511770      9.511770     19.023540
     -7.138770      9.865242      9.865242     19.730484
     -7.110157      9.730553      9.730553     19.461106
     -7.081545      9.208644      9.208644     18.417288
     -7.052933      8.420418      8.420418     16.840836
     -7.024320      7.463953      7.463953     14.927906
     -6.995708      6.403702      6.403702     12.807405
     -6.967096      5.308394      5.308394     10.616787
     -6.938484      4.318274      4.318274      8.636547
     -6.909871      3.684368      3.684368      7.368736
     -6.881259      3.725346      3.725346      7.450693
     -6.852647      4.705642      4.705642      9.411283
     -6.824034      6.704873      6.704873     13.409745
     -6.795422      9.562949      9.562949     19.125898
     -6.766810     12.940600     12.940600     25.881200
     -6.738197     16.464596     16.464596     32.929192
     -6.709585     19.869443     19.869443     39.738885
     -6.680973     23.049673     23.049673     46.099346
     -6.652361     26.019356     26.019356     52.038712
     -6.623748     28.865386     28.865386     57.730773
     -6.595136     31.756997     31.756997     63.513995
     -6.566524     34.937258     34.937258     69.874515
     -6.537911     38.571116     38.571116     77.142232
     -6.509299     42.516491     42.516491     85.032983
     -6.480687     46.316300     46.316300     92.632600
     -6.452074     49.574026     49.574026     99.148051
     -6.423462     52.394731     52.394731    104.789462
     -6.394850     55.359723     55.359723    110.719445
     -6.366237     58.970836     58.970836    117.941673
     -6.337625     63.159947     63.159947    126.319894
     -6.309013     67.444616     67.444616    134.889232
     -6.280401     71.552292     71.552292    143.104583
     -6.251788     75.753960     75.753960    151.507921
     -6.223176     80.495639     80.495639    160.991278
     -6.194564     85.770726     85.770726    171.541453
     -6.165951     90.973669     90.973669    181.947337
     -6.137339     95.379199     95.379199    190.758397
     -6.108727     98.670978     98.670978    197.341956
     -6.080114    100.946427    100.946427    201.892854
     -6.051502    102.269332    102.269332    204.538664
     -6.022890    102.335032    102.335032    204.670064
     -5.994278    100.646248    100.646248    201.292496
     -5.965665     97.049373     97.049373    194.098747
     -5.937053     92.149787     92.149787    184.299575
     -5.908441     87.240608     87.240608    174.481216
     -5.879828     83.727271     83.727271    167.454542
     -5.851216     82.349023     82.349023    164.698047
     -5.822604     82.664517     82.664517    165.329033
     -5.793991     83.175303     83.175303    166.350606
     -5.765379     82.074728     82.074728    164.149455
     -5.736767     78.184461     78.184461    156.368921
     -5.708155     71.542788     71.542788    143.085576
     -5.679542     63.374164     63.374164    126.748328
     -5.650930     55.509875     55.509875    111.019750
     -5.622318     49.550206     49.550206     99.100413
     -5.593705     46.173999     46.173999     92.347999
     -5.565093     44.972269     44.972269     89.944539
     -5.536481     44.884116     44.884116     89.768232
     -5.507868     44.872566     44.872566     89.745132
     -5.479256     44.329270     44.329270     88.658540
     -5.450644     43.047203     43.047203     86.094406
     -5.422031     41.050351     41.050351     82.100701
     -5.393419     38.588107     38.588107     77.176214
     -5.364807     36.239148     36.239148     72.478297
     -5.336195     34.852018     34.852018     69.704035
     -5.307582     35.244634     35.244634     70.489267
     -5.278970     37.890003     37.890003     75.780007
     -5.250358     42.825162     42.825162     85.650325
     -5.221745     49.754487     49.754487     99.508973
     -5.193133     58.135447     58.135447    116.270893
     -5.164521     67.145680     67.145680    134.291360
     -5.135908     75.682394     75.682394    151.364788
     -5.107296     82.635396     82.635396    165.270793
     -5.078684     87.440598     87.440598    174.881195
     -5.050072     90.521176     90.521176    181.042352
     -5.021459     93.110361     93.110361    186.220722
     -4.992847     96.405933     96.405933    192.811865
     -4.964235    100.663211    100.663211    201.326422
     -4.935622    104.991400    104.991400    209.982800
     -4.907010    108.060033    108.060033    216.120067
     -4.878398    109.123346    109.123346    218.246692
     -4.849785    108.443662    108.443662    216.887325
     -4.821173    106.727740    106.727740    213.455480
     -4.792561    104.175543    104.175543    208.351087
     -4.763948    100.153900    100.153900    200.307801
     -4.735336     93.841045     93.841045    187.682090
     -4.706724     85.188253     85.188253    170.376506
     -4.678112     75.306597     75.306597    150.613194
     -4.649499     66.030163     66.030163    132.060325
     -4.620887     59.120899     59.120899    118.241798
     -4.592275     55.706238     55.706238    111.412477
     -4.563662     56.160799     56.160799    112.321599
     -4.535050     60.226699     60.226699    120.453399
     -4.506438     67.058065     67.058065    134.116129
     -4.477825     75.139708     75.139708    150.279415
     -4.449213     82.411226     82.411226    164.822451
     -4.420601     86.940037     86.940037    173.880073
     -4.391989     87.943846     87.943846    175.887693
     -4.363376     86.388788     86.388788    172.777577
     -4.334764     84.511738     84.511738    169.023475
     -4.306152     84.467289     84.467289    168.934578
     -4.277539     87.092742     87.092742    174.185483
     -4.248927     91.701235     91.701235    183.402471
     -4.220315     96.884430     96.884430    193.768860
     -4.191702    101.457765    101.457765    202.915530
     -4.163090    104.773354    104.773354    209.546708
     -4.134478    106.456513    106.456513    212.913027
     -4.105866    106.164993    106.164993    212.329986
     -4.077253    103.677417    103.677417    207.354833
     -4.048641     99.078257     99.078257    198.156513
     -4.020029     92.789869     92.789869    185.579738
     -3.991416     85.528681     85.528681    171.057361
     -3.962804     78.274748     78.274748    156.549496
     -3.934192     72.090318     72.090318    144.180635
     -3.905579     67.690088     67.690088    135.380176
     -3.876967     65.057520     65.057520    130.115040
     -3.848355     63.501699     63.501699    127.003398
     -3.819742     62.147457     62.147457    124.294914
     -3.791130     60.452031     60.452031    120.904063
     -3.762518     58.394307     58.394307    116.788614
     -3.733906     56.327726     56.327726    112.655452
     -3.705293     54.692443     54.692443    109.384885
     -3.676681     53.733711     53.733711    107.467421
     -3.648069     53.316669     53.316669    106.633338
     -3.619456     52.976612     52.976612    105.953225
     -3.590844     52.276617     52.276617    104.553234
     -3.562232     51.250598     51.250598    102.501195
     -3.533619     50.511821     50.511821    101.023642
     -3.505007     50.837859     50.837859    101.675718
     -3.476395     52.538784     52.538784    105.077568
     -3.447783     55.170180     55.170180    110.340361
     -3.419170     57.866799     57.866799    115.733597
     -3.390558     59.981199     59.981199    119.962398
     -3.361946     61.414469     61.414469    122.828938
     -3.333333     62.384596     62.384596    124.769192
     -3.304721     63.031122     63.031122    126.062244
     -3.276109     63.429156     63.429156    126.858311
     -3.247496     64.009576     64.009576    128.019152
     -3.218884     65.721602     65.721602    131.443204
     -3.190272     69.425166     69.425166    138.850332
     -3.161660     74.938814     74.938814    149.877628
     -3.133047     80.797278     80.797278    161.594556
     -3.104435     85.194276     85.194276    170.388553
     -3.075823     87.333254     87.333254    174.666509
     -3.047210     87.916361     87.916361    175.832722
     -3.018598     88.341037     88.341037    176.682074
     -2.989986     89.391476     89.391476    178.782953
     -2.961373     90.587702     90.587702    181.175404
     -2.932761     90.695546     90.695546    181.391092
     -2.904149     88.900677     88.900677    177.801354
     -2.875536     85.607788     85.607788    171.215576
     -2.846924     82.169940     82.169940    164.339879
     -2.818312     79.826351     79.826351    159.652702
     -2.789700     78.841628     78.841628    157.683256
     -2.761087     78.589099     78.589099    157.178197
     -2.732475     78.359678     78.359678    156.719355
     -2.703863     77.975041     77.975041    155.950082
     -2.675250     77.560583     77.560583    155.121166
     -2.646638     76.830960     76.830960    153.661920
     -2.618026     74.879894     74.879894    149.759789
     -2.589413     70.949828     70.949828    141.899657
     -2.560801     65.483962     65.483962    130.967925
     -2.532189     60.274362     60.274362    120.548723
     -2.503577     57.333542     57.333542    114.667085
     -2.474964     57.399113     57.399113    114.798227
     -2.446352     59.402875     59.402875    118.805751
     -2.417740     61.375410     61.375410    122.750819
     -2.389127     61.969615     61.969615    123.939230
     -2.360515     61.316524     61.316524    122.633048
     -2.331903     60.646589     60.646589    121.293177
     -2.303290     61.185699     61.185699    122.371398
     -2.274678     63.243513     63.243513    126.487026
     -2.246066     66.028158     66.028158    132.056315
     -2.217454     68.148368     68.148368    136.296736
     -2.188841     68.438523     68.438523    136.877046
     -2.160229     66.656546     66.656546    133.313092
     -2.131617     63.677425     63.677425    127.354849
     -2.103004     61.059892     61.059892    122.119785
     -2.074392     60.243943     60.243943    120.487886
     -2.045780     61.894869     61.894869    123.789738
     -2.017167     65.787417     65.787417    131.574834
     -1.988555     71.161924     71.161924    142.323848
     -1.959943     77.109325     77.109325    154.218651
     -1.931330     82.669617     82.669617    165.339234
     -1.902718     86.814517     86.814517    173.629034
     -1.874106     88.694541     88.694541    177.389082
     -1.845494     88.131978     88.131978    176.263956
     -1.816881     85.836100     85.836100    171.672200
     -1.788269     82.949955     82.949955    165.899909
     -1.759657     80.247418     80.247418    160.494837
     -1.731044     77.711093     77.711093    155.422187
     -1.702432     74.814729     74.814729    149.629457
     -1.673820     71.124779     71.124779    142.249557
     -1.645207     66.636149     66.636149    133.272297
     -1.616595     61.665501     61.665501    123.331002
     -1.587983     56.578020     56.578020    113.156041
     -1.559371     51.656700     51.656700    103.313400
     -1.530758     47.119254     47.119254     94.238509
     -1.502146     43.091382     43.091382     86.182763
     -1.473534     39.513464     39.513464     79.026929
     -1.444921     36.191716     36.191716     72.383431
     -1.416309     33.055176     33.055176     66.110352
     -1.387697     30.312735     30.312735     60.625470
     -1.359084     28.236838     28.236838     56.473675
     -1.330472     26.786642     26.786642     53.573284
     -1.301860     25.534330     25.534330     51.068660
     -1.273247     23.994908     23.994908     47.989816
     -1.244635     21.987461     21.987461     43.974921
     -1.216023     19.679718     19.679718     39.359437
     -1.187411     17.367488     17.367488     34.734975
     -1.158798     15.271465     15.271465     30.542930
     -1.130186     13.493823     13.493823     26.987646
     -1.101574     12.046166     12.046166     24.092333
     -1.072961     10.842194     10.842194     21.684388
     -1.044349      9.700040      9.700040     19.400080
     -1.015737      8.448301      8.448301     16.896602
     -0.987124      7.081537      7.081537     14.163073
     -0.958512      5.794062      5.794062     11.588123
     -0.929900      4.837104      4.837104      9.674209
     -0.901288      4.346167      4.346167      8.692333
     -0.872675      4.294504      4.294504      8.589008
     -0.844063      4.553085      4.553085      9.106170
     -0.815451      4.939783      4.939783      9.879566
     -0.786838      5.235677      5.235677     10.471355
     -0.758226      5.248690      5.248690     10.497381
     -0.729614      4.932105      4.932105      9.864210
     -0.701001      4.428416      4.428416      8.856832
     -0.672389      3.945084      3.945084      7.890169
     -0.643777      3.566751      3.566751      7.133501
     -0.615165      3.201573      3.201573      6.403146
     -0.586552      2.710435      2.710435      5.420870
     -0.557940      2.066367      2.066367      4.132735
     -0.529328      1.383693      1.383693      2.767387
     -0.500715      0.821188      0.821188      1.642376
     -0.472103      0.481230      0.481230      0.962460
     -0.443491      0.384998      0.384998      0.769996
     -0.414878      0.499335      0.499335      0.998669
     -0.386266      0.756186      0.756186      1.512372
     -0.357654      1.052024      1.052024      2.104048
     -0.329041      1.261987      1.261987      2.523974
     -0.300429      1.290541      1.290541      2.581082
